ID,PPG_fs,Quality,HR,PPG_Signal
100001,30,1,83,"[-254.17483741250064, -254.41797627181813, -254.148814380695, -254.41185262482813, -254.19337221443877, -254.48594879059567, -254.50393596818603, -254.4897041451369, -254.16951408609665, -254.08594738070556, -254.28924421763006, -254.251162935058, -254.1921890612103, -254.20934586109763, -254.22966092884172, -254.2541222114452, -253.96050347222223, -254.27424711790962, -254.28490276999582, -254.29141499703934, -254.3265473077493, -254.33523319561078, -254.08121883304239, -254.08180989187545, -254.1153077193913, -254.40592679550397, -254.15886810219718, -254.44326412961098, -254.46697606222702, -254.4565027470927, -254.40849462098438, -254.38558354889898, -254.33720734377633, -254.00479839381714, -254.378671535782, -254.35931989719126, -254.2789828530277, -254.2975328475084, -254.3131248297374, -254.04123023964397, -254.3808438422865, -254.3589249964486, -254.36563847584003, -254.36642832024384, -254.39012593347678, -254.40592679550397, -254.42232226465137, -254.17917510258854, -254.19337221443877, -254.47745023955068, -254.46855701487343, -254.42666840596456, -254.09737543086902, -254.04871483153875, -254.25609510064095, -253.91150176405998, -254.17562607241368, -254.20421829894892, -254.25214935286633, -254.2436664098392, -254.26004097088583, -254.38538605759712, -254.31726985556065, -254.33306166802498, -254.34115573204872, -254.13974700038005, -254.14605467471446, -254.40335902185882, -254.40256894808843, -254.41027237668283, -254.13757880963996, -254.16951408609665, -254.43990529651524, -254.43773198117748, -254.40750698966514, -254.0091302821023, -254.25925178703898, -254.20678205416644, -254.23932651834036, -254.26181665245346, -254.01917295506308, -254.02291454606205, -254.03827591687374, -254.06427631573843, -254.10584861442635, -254.15393970795603, -254.16557102510936, -254.44622787951639, -254.47606680821917, -254.22453254713324, -254.50749417266616, -254.50828489828447, -254.5725477765399, -254.60182285798643, -254.5013662157145, -254.25017652490357, -254.4189639844244, -254.40355654106818, -254.3595173480224, -254.32773171206873, -254.0380789644655, -254.07156526135245, -254.0889028123711, -254.3915084305472, -254.427853743002, -254.44267138791497, -254.43852227336825, -254.4897041451369, -254.48239118852683, -254.50255224886834, -254.54070887959986, -254.3010852828689, -254.61567152581355, -254.64080081256267, -254.61646292376506, -254.59648163155578, -254.62160713036857, -254.5505958831586, -254.51283166594172, -254.4549219442229, -254.37827657494913, -254.3780790949926, -254.1038780561949, -254.12378209895834, -254.4523531814504, -254.14270368373903, -254.42054434054634, -254.4335830277185, -254.4327927662102, -254.4725094824346, -254.24386368115506, -254.28569211308482, -254.61408874466946, -254.56206576957112, -254.3342461330204, -254.56562559966687, -254.36958774691132, -254.6665288424397, -254.54545454545456, -254.48515820376207, -254.43536113406097, -254.39091592996272, -254.35912244666665, -253.99830083841843, -254.29141499703934, -254.3243759284815, -254.34451195846907, -254.37689422169223, -254.4011863307984, -254.41501318001298, -254.12989188602276, -254.15926238199359, -254.4280513002487, -254.17897793164545, -254.17799208151817, -254.47626444034563, -254.49800584847557, -254.26951155918653, -254.2768122858684, -254.5181693830962, -254.50828489828447, -254.46717368023354, -254.11097220886626, -254.09954293566517, -254.31055892908148, -254.32003328117628, -254.34628882008064, -254.33700992758068, -254.33187721406196, -254.09323756984907, -254.3131248297374, -254.06250339220392, -254.080430758876, -254.15078563594705, -254.40000124222544, -254.19593575088533, -254.4424738079634, -254.47448576225855, -254.49069241475294, -254.28391609802583, -254.2645788730788, -254.470730856838, -254.43852227336825, -254.46579036063366, -254.29773020242462, -254.27109005916205, -253.91799487932946, -254.23557854945983, -254.27444443668438, -254.30700622903544, -254.3275343105828, -254.37077255214612, -254.5051220252913, -254.36860041764672, -254.4284464156625, -254.46559274477568, -254.59786637244468, -254.4827864727336, -254.50354061827417, -254.30384835676892, -254.340366044587, -254.66454957864195, -254.65326836243813, -254.70651655977136, -254.6698936615044, -254.5907450083369, -254.47863604980688, -254.44761098643394, -254.39684106000885, -254.43536113406097, -254.23636758635675, -254.2693142480676, -254.2939805113973, -254.28806017175523, -254.53813838447866, -254.53991795249448, -254.54367490002207, -254.5438726371746, -254.588964729557, -254.56226353529783, -254.3731421957277, -254.61112108306273, -254.6336770464452, -254.42647085086543, -254.41600086961247, -254.43299033112706, -254.60597730015252, -254.4991918503094, -254.4946455699742, -254.4335830277185, -254.40355654106818, -254.40849462098438, -254.36544101550552, -254.397433588194, -254.4116550927364, -254.40513670578463, -254.4282488578022, -254.13954989060218, -254.12378209895834, -254.40632184220397, -254.43852227336825, -254.45907159364828, -254.47922895907922, -254.26536808999504, -254.54624550696784, -254.5513868766241, -254.56720777833456, -254.54426811240123, -254.26004097088583, -254.2286746855213, -254.4361514115239, -254.41481564301333, -254.12397918427808, -254.34806570651892, -254.34846057354346, -254.37254978069325, -254.3747219826432, -254.39644604275216, -254.14664603523633, -254.6473312816687, -254.5013662157145, -254.5163901191684, -254.46085005626298, -254.2395237829215, -254.49345961051245, -254.50373829307657, -254.50452899535682, -254.51559934318553, -254.5314157965302, -254.50531970255022, -254.15531963907728, -254.352804191733, -254.34312997215707, -254.0900850042882, -254.0392606834956, -254.2708927455933, -254.28371876455066, -253.97526672944932, -254.25925178703898, -254.31450648999876, -254.33858926572705, -254.3794614611273, -254.40000124222544, -254.43536113406097, -254.1917946792484, -254.20658484039066, -254.5013662157145, -254.50255224886834, -254.51461088011706, -254.74037736435798, -254.7572121084897, -254.53438160038093, -254.27227394700532, -254.42943420956593, -254.38123881109163, -254.34648625068112, -254.3265473077493, -254.32003328117628, -254.33661509610874, -254.34668368158808]"
100002,30,1,85,"[-253.86586256828548, -253.86566588312587, -253.57235444566115, -253.6864158112902, -254.08102181404251, -254.14763164222168, -254.17464024828706, -253.93098210618498, -254.26674923138765, -254.3188489485588, -254.35398884062337, -254.36761309604674, -254.15433397246164, -254.42350756119302, -254.20638762692087, -254.48100770347338, -254.49425024892545, -254.4260757415875, -254.28292943371275, -254.14861725685165, -253.74043933561467, -253.68975478024834, -253.94771003754929, -253.9618813036095, -254.0079488433712, -254.0097210055892, -254.13127155601987, -254.41185262482813, -254.24642823611936, -254.30582201774482, -254.33622026586272, -254.36761309604674, -254.38380613822136, -254.14408349285043, -254.43654655209633, -254.21762928309033, -254.49879651513655, -254.43871984718302, -254.43931257046833, -254.41659348705323, -254.35556838964288, -254.22926643059535, -254.1212200176203, -254.05895761936517, -253.9687706848096, -253.94298663364148, -254.16281095521066, -253.96050347222223, -253.68916554404544, -253.7632343408638, -254.14112677738626, -253.86035549901644, -254.21092361414435, -254.2199960742418, -254.2349867750012, -254.39565601191893, -254.35161955387747, -254.50591273616962, -254.49089006959724, -254.33483836965522, -254.36287405905455, -254.3435248238566, -254.0170068211788, -253.9111082525953, -254.02724705229315, -253.9329499837257, -253.8987132657758, -253.89104078512744, -254.22946367956553, -254.27641764127526, -254.16143094274057, -254.21506530907374, -254.2799694867141, -254.3006905629275, -254.33858926572705, -254.56206576957112, -254.4090872034566, -254.43694169389607, -254.47409050383806, -254.5268683648589, -254.55277112701768, -254.37116748967713, -254.4122476899318, -254.35813519864183, -254.2975328475084, -254.16458527897834, -254.03157970631355, -254.01582530917648, -254.1793722738376, -254.03374608874708, -253.80215251985794, -254.0938286846009, -254.12555587784104, -254.1509827631541, -254.23340872324658, -254.40849462098438, -254.45037724537877, -254.25727884885475, -254.32102023345033, -254.34944774646874, -254.36267660301198, -254.4156057928524, -254.56819664998912, -254.56839442524193, -254.3618867819072, -254.29773020242462, -254.15886810219718, -254.06604926401715, -254.01917295506308, -254.14270368373903, -254.19475257379264, -254.0323674774687, -254.06959523480907, -254.2835214313818, -254.30522991623536, -254.32852132107706, -254.35813519864183, -254.39032343213825, -253.96975491263711, -253.9817631064108, -253.99180361543188, -254.43397816031353, -254.2637896610618, -254.27286589506113, -254.04516944356146, -254.03906372956044, -253.92035609449152, -254.05895761936517, -253.96601488747586, -253.8534719984134, -253.79212699907674, -253.54351180242068, -254.17503457702009, -254.2357758082249, -254.06486729574866, -254.0847652272898, -254.13127155601987, -254.13225704376097, -254.1606423709146, -254.18331576305806, -254.20993751619505, -254.25530594128855, -254.0303980587417, -254.36484863634138, -254.35616072558304, -254.37827657494913, -254.4867393823413, -254.41698856688086, -254.17207714134568, -253.99987597283808, -253.88769651560114, -253.7999900856353, -253.781512605042, -253.77581264874973, -253.9061894621996, -254.03551861094897, -254.0922523847078, -254.1291035098931, -254.1762175705603, -254.38676850314968, -254.22551875831624, -254.45768836213492, -254.45551474299737, -254.31016417973, -254.32082284238274, -254.36642832024384, -254.1606423709146, -254.2101347351729, -254.28806017175523, -254.14467484419902, -253.9799913342805, -253.6102326430974, -253.88081153221836, -253.8446223318503, -253.87923787416136, -254.0481239266705, -254.13954989060218, -254.2314361861017, -254.25392492420957, -254.26970887061168, -254.30799308020244, -254.51896017504924, -254.35438372603906, -254.39071843038124, -254.44405445616826, -254.19554135729732, -254.47982187111438, -254.48990179844608, -254.10900157116868, -254.1149135759576, -254.25806802045426, -254.13068026704389, -254.04477551767235, -253.9370826258429, -253.87195995940158, -253.901861084292, -253.9465291700993, -254.01405306178137, -254.03866982260632, -253.77482992354302, -254.10131637618505, -254.14566043589542, -254.38834845932288, -254.40158136277634, -254.41501318001298, -254.43299033112706, -254.4363489816567, -254.45946680541428, -254.371759898273, -254.17404875748161, -254.16024808683662, -254.31983589164068, -254.20342946159332, -254.08338606220767, -253.99869462019183, -253.92311090101748, -253.92114317597097, -254.15413684005594, -254.1149135759576, -253.90323827943692, -254.2472173403632, -253.98747231810174, -254.26319775526423, -254.0181883441723, -254.31450648999876, -254.32694210796342, -254.34885544179403, -254.5405111473627, -254.55000264128546, -254.55375988651627, -254.49049476021568, -254.30838782281378, -254.24642823611936, -254.10584861442635, -254.02232376120799, -253.9089439613422, -253.8587820945383, -253.44016385010622, -254.05009362025456, -254.00361699538223, -254.10545450033501, -254.17818925093184, -254.3798564256397, -254.4071119392845, -254.43852227336825, -254.32891612741983, -254.35655561774246, -254.3796589432302, -254.40849462098438, -254.4260757415875, -254.38242372486607, -254.38400362707011, -254.39802611913936, -254.51283166594172, -254.20007695744997, -254.121417098966, -254.1866678251048, -253.87353352723602, -253.84108263798885, -253.92133994710326, -253.5464546286717, -253.59708193475836, -253.60709205147216, -254.00361699538223, -254.09481388196573, -254.16695108253853, -254.13422804217294, -254.1663596275195, -254.22275738628562, -254.23972104780876, -254.24702006384302, -254.2736551634228, -254.30483518342746, -254.33681251169148, -254.35754285350552, -254.19416098937674, -254.08555332834473, -254.25708155672032, -253.89753285395486, -253.91327258074514, -254.20737369732979, -254.21329028043604, -254.2138819538944, -254.13659328062445, -254.1196433778594, -254.1277238634363, -254.21960160598945, -254.22512427292483, -254.26872231654812, -254.4861464380716, -254.48792527917018, -254.3630715154037, -254.36761309604674, -254.37926397933106, -254.42647085086543, -254.42054434054634, -254.3585300969321, -254.37590683570718, -254.10131637618505, -254.080430758876]"
100003,30,1,81,"[-253.81375165958423, -253.6017924794805, -253.6367344821954, -253.68150572248558, -254.0303980587417, -254.05423007619996, -253.7141122716112, -253.1159596615027, -253.73022221430668, -253.61101780315755, -253.49486697457084, -253.07119234708145, -253.0790108238449, -253.06708784016, -253.13727368521887, -253.52683707726507, -253.53703782512315, -252.74188733791453, -252.78166289555236, -253.37314060674387, -253.41174323335656, -253.47839473224136, -253.84324577250715, -253.88553262344254, -253.6025775872811, -253.7033079684224, -253.71784488112033, -253.73768849124147, -253.6964329818525, -253.86664931197157, -253.3635407645676, -253.6086623375618, -253.4907487132832, -253.00397338312033, -253.04617646740837, -253.44232015704497, -253.44957345876253, -253.18147750365088, -253.13825147883512, -253.18636825492493, -253.1808906261952, -253.23509045269628, -253.2613181924282, -253.34806499974096, -253.4258547428308, -253.46898298345687, -253.85130868960601, -253.54410036220588, -253.58550258948665, -253.64556965944752, -253.61926227731786, -253.45663112379674, -253.27600026899026, -253.16504596328193, -253.06611059623108, -252.99186213499283, -252.97213500391035, -252.99576886253436, -253.44428046792095, -253.0709968913518, -253.1061837872076, -253.162503177376, -253.21375995425194, -253.26679930188735, -253.68916554404544, -253.40919548941378, -252.9820958439814, -253.8233856493384, -253.5751017063135, -253.60748462117155, -253.65322731097547, -253.6889691325861, -253.73081164124736, -253.21336860253146, -253.48761108020983, -253.38665998536916, -253.25564157915522, -253.1789343876596, -252.64055525871234, -252.69062653270856, -253.60944748789888, -253.57627912195912, -253.26719081878417, -253.30869847552492, -253.43153898925934, -253.76598573916792, -253.42173872355627, -253.4654537578514, -253.5233062404011, -253.90284479358527, -253.68523737264255, -254.02153605234395, -254.0252777129585, -254.05659382578978, -254.08712954512146, -253.77758157330175, -253.5131065974374, -253.41644689522897, -252.61328742653924, -253.09953662400582, -252.54436501666697, -253.0876117062772, -253.10246915296761, -253.14255386048768, -253.4987892525859, -253.54410036220588, -253.58255885673867, -253.58942767280024, -253.639679472889, -253.6628491183306, -253.70880822596632, -253.50447677130904, -253.528602532578, -253.93255640577755, -253.94180581011906, -253.98314116849144, -253.97113284441158, -253.61651405970633, -253.48310086874454, -253.41860279861004, -253.5154602883548, -253.43937974758933, -253.38215336552776, -253.0162811618039, -253.57058838096182, -253.57529794149514, -253.28109045289443, -252.845056685073, -253.41154725123448, -253.82220593782995, -253.5372340013959, -253.8922211365836, -253.61788816106716, -253.63830513538804, -253.65558360446852, -254.00519219573758, -253.71666615046306, -254.13068026704389, -254.0997399833893, -253.8794345803516, -253.38274117641603, -253.27462986981868, -252.57998970162464, -252.50135624984588, -252.97506458132924, -253.0260500924707, -253.03699219042602, -253.0788153560381, -252.60471875204775, -253.15878688985617, -253.2186519528292, -253.6345748658176, -253.306740261447, -253.35727187252573, -253.38156555736674, -253.4648655631388, -253.47917907618995, -253.54508130125336, -253.57824150566674, -253.6367344821954, -253.68170212238846, -253.6734535882945, -253.539980501091, -253.38724781716712, -253.2787411118231, -253.16132960110886, -253.11674176406925, -253.09171687898603, -253.11654623797455, -253.5291910231462, -253.50153491941674, -253.15565746920055, -253.58569884076658, -253.34610617696882, -253.69898650479647, -253.38234930218746, -253.40429612581514, -253.46251281158746, -253.50820321505995, -253.56941101816238, -253.90559922015873, -253.9412154024759, -253.73297289679314, -253.7555700458924, -253.25896921814106, -253.6889691325861, -253.54861274467322, -253.03855542453286, -252.9869788952328, -253.33435387640145, -253.3439515069044, -253.34747734972888, -253.05868378901454, -253.09288980993512, -253.1036421835799, -253.1671975912532, -253.59315661449614, -253.29773286663118, -253.3280864285819, -253.40508001126003, -253.4654537578514, -253.47270838377594, -253.55253668607372, -253.58687635482505, -253.68936195580895, -253.70173651007005, -253.65499452699117, -253.47604172951932, -253.35511701253282, -253.59629686098444, -253.1370781274021, -253.14235829451255, -253.1609384114377, -253.18519445738693, -253.57274690782398, -253.61199926006935, -253.60591434966614, -253.58471758740455, -253.64125016255582, -253.66972228480034, -253.71784488112033, -253.46035616103515, -253.50075043711027, -253.91032123332522, -253.66520559059003, -254.0231114749574, -253.72295284053249, -254.04477551767235, -253.62044010309836, -253.52487548908783, -253.35981857250331, -253.2566202874266, -253.48251259212498, -253.45702322782356, -253.08976201823003, -252.63802299779337, -253.51447957849456, -253.48172822754643, -253.50604578690388, -253.21023783231576, -253.24996522034843, -253.64969295281622, -253.37216099768332, -253.73650957619722, -253.49172923954805, -253.84855544081267, -253.5372340013959, -253.5670563253632, -253.6172992586607, -253.18949843490302, -253.05672943851323, -253.3688303835367, -253.25603306155602, -253.13003824722492, -253.41507497581236, -253.37745097660164, -252.9955735232917, -253.03542897563395, -253.46859084242507, -253.44722099109487, -253.2474207283095, -253.2127815772188, -253.2859850534446, -253.28246092197998, -253.33846705757193, -253.7082189012507, -253.69662940486938, -253.7386709288135, -253.469375125702, -253.55253668607372, -253.63025574338968, -253.934524307719, -253.41056734517107, -253.32514866916742, -253.18832460834125, -253.08604786598883, -253.01491357170542, -252.45019295678833, -252.47081140930442, -252.48287282004574, -253.0923033431016, -253.4927097733984, -253.52311008568117, -253.5083993467132, -253.54684701066665, -252.76742804687078, -252.8393987164737, -253.45133783817232, -253.49153313368822, -253.56116978468927, -253.59747447346814, -253.6361454922633, -253.97743215151058, -253.64125016255582, -253.86448577856837, -253.36530394635, -253.2660162717251, -252.64289277538631, -253.12495413283438, -253.4668262227974]"
100004,30,0,85,"[-229.70689884820573, -237.12002686207282, -241.2355453401644, -245.03106728016039, -241.30678445656446, -237.13650094298796, -246.00219222510847, -250.8347890789226, -250.29867483095464, -240.50833598795072, -228.96357419916555, -213.83049396299356, -180.80130396326038, -178.20500618635197, -168.22793609525542, -179.6891537220502, -195.0941562849052, -211.3276032533371, -227.5818001236291, -253.59394166882723, -255.00007782222292, -254.09560204535833, -246.52783002543, -234.7641861921374, -204.1052773862166, -195.463891942774, -192.4347485463298, -201.6291800195925, -212.54375967707517, -236.2799766654865, -254.9369873756903, -254.99055273503765, -252.54786863842116, -245.82188322654068, -233.0890073212441, -205.28695190194443, -209.7090684276076, -212.38023756097496, -215.03322918655923, -226.1605507309996, -246.2615842600616, -255.00007782222292, -255.00007782222292, -255.00007782222292, -254.25510865221588, -250.0368183736275, -230.97880679395044, -214.16213891552272, -204.03004005631422, -211.27936629730766, -222.2926254775964, -240.61518533177752, -255.00007782222292, -255.00007782222292, -254.99968092938266, -253.7221669872361, -247.99981229910136, -227.5765840662359, -216.67240853729098, -207.09339269247957, -215.33988634638527, -226.84334883836848, -252.2049751351002, -255.00007782222292, -254.95622863661012, -253.07471060184315, -249.2649547942444, -239.0246144217183, -213.73787870683594, -203.60786146189784, -197.24600821682793, -205.2905531385954, -212.95055481395505, -241.9212535872521, -254.99094959946336, -254.99987937564836, -253.06532880652207, -248.00750826893528, -232.6785262864885, -212.63354894977834, -200.1714166677357, -195.80483933808677, -214.14772251965869, -244.98636638572023, -251.46946979365643, -249.0648760528458, -239.4135475027692, -212.4459192320385, -192.46164951856687, -188.50253612912542, -193.49874453465108, -201.03415991685492, -208.474762827907, -217.7822855076779, -227.69534811322853, -235.29437108824095, -245.83331770319492, -250.77297495867265, -253.82279579221344, -254.7350303230075, -254.99551362915105, -254.88086709433324, -253.62004749328932, -251.47661061072125, -248.78859157731375, -249.21244092356227, -249.4915677530226, -249.98016454274696, -248.63756599704672, -248.2694557423156, -247.55669317989506, -246.93953836090085, -248.42436616418735, -250.53387639757867, -251.070422621547, -245.2603238451238, -236.3428634077169, -228.9346194530498, -229.18714000440653, -235.4808827640527, -242.06655260350644, -245.0438943186042, -245.05690597239732, -245.70520174866337, -243.7415106662481, -237.38853055579503, -224.54608687309621, -209.45410380976733, -197.610127828128, -201.29029245973828, -207.9202203635796, -207.85084622767238, -207.9748553975908, -205.47850712499402, -171.43963354497106, -116.46774344324673, -93.76801951652251, -91.44787775171122, -116.17443715653252, -125.56623986075702, -133.76049168931252, -137.91295073611516, -138.48374938612739, -140.887219280055, -142.29792452699087, -143.74567889969433, -146.70748764714625, -157.2616969596328, -170.76204785214625, -212.44757212500087, -247.18058583465978, -249.0739635727333, -250.50744442957892, -254.121417098966, -254.50788953486114, -254.89534098582038, -254.9233020608122, -254.93341715189106, -253.61356960692876, -252.37105715953743, -252.25506808123095, -250.77642960244046, -251.91374335657935, -252.52237227841192, -252.0009259593947, -253.94180581011906, -253.95991297763288, -253.41311511669906, -250.74457371815475, -247.35094363550857, -242.6971252163698, -235.60245187036008, -225.52965088227543, -221.22062583421044, -228.63733765576777, -235.28305124786112, -243.8354655696911, -246.3926898062892, -250.24419562838276, -250.47067879411443, -252.11939719711742, -248.08017425499102, -237.40332192215035, -219.25572027447953, -207.48916392004887, -203.5509442659164, -213.4093523146321, -218.15259696595655, -215.99768491509926, -218.2078018595644, -219.70896792371101, -220.63923226408565, -213.3226564585327, -205.29698423260015, -196.69377731649587, -194.18781820649323, -203.1180262831639, -203.25044397261047, -203.94051387507517, -205.06597508192127, -214.50141366558674, -223.3252818913437, -235.08639516497013, -242.01667017501097, -245.71349298298895, -251.34235395189003, -253.63123734920643, -254.64851867567538, -254.98043310955978, -254.98380622880453, -254.44207864898067, -252.8593002788112, -251.14489482296767, -248.56759009977753, -248.31385743948832, -247.90618498203136, -248.10929014710737, -248.68776165076395, -248.5202702497717, -248.35338078022085, -247.74611297107825, -246.54081425357577, -244.91659964541023, -243.5711981351011, -242.88259920776107, -240.76917989903964, -235.37161159912912, -230.66499125335702, -231.67025009527137, -232.5320639056899, -238.590548560935, -245.99425085002284, -250.1078149628086, -251.09197075817255, -246.18332081142, -234.83990078055402, -216.04610636349312, -196.30538256694135, -191.63153782452267, -201.3027823119932, -208.068487914159, -208.29505977032684, -213.6162339732411, -220.40859705861774, -223.47302187467176, -230.55787166524183, -234.6732250362033, -235.97454093456489, -233.34679277235247, -220.66895010687634, -225.3852259767702, -221.62926288164712, -222.08380720520202, -219.90050218679096, -223.64522538226907, -228.2199581546828, -241.1435829843165, -246.92167412699132, -250.5139561357838, -252.65945142356603, -253.55351769040115, -252.64289277538631, -252.1931343619014, -251.46657498334662, -250.61128901867176, -248.64058471171896, -249.61301488826186, -249.84083292985594, -248.80672697700626, -249.74961775739828, -249.00771561429679, -247.46022299891553, -242.82878077230623, -241.4422725504297, -237.74489530866134, -234.6214708683293, -228.15909513441173, -223.84017018055724, -224.74846375813564, -235.34997238317078, -244.5548537425095, -248.0168942444518, -248.82637664387002, -242.85649698754773, -232.93027091197317, -221.96856794472293, -222.6713356950299, -229.0586484372324, -233.64979128606856, -234.5734338624187, -234.0603655304735, -236.19260433936424, -237.40005390351268, -237.90421826751827, -235.18071528183, -228.78851777270705, -225.4477201687882, -220.38487820888776, -213.34099009178996, -213.65495575561684]"
101001,30,1,67,"[-254.44879651861677, -254.47211423015332, -254.45907159364828, -254.4422762283186, -254.42093943264447, -254.44405445616826, -254.43891742130464, -254.4616404920715, -254.48654173394442, -254.56819664998912, -254.56028589185829, -254.6204199873183, -254.63011531285383, -254.628730221144, -254.61725432663616, -254.61349520681375, -254.60775781687076, -254.6255643538197, -254.62714727764126, -254.62239856521865, -254.6328855414805, -254.61685862458566, -254.59153625134226, -254.49800584847557, -254.39802611913936, -254.33148239852585, -254.2541222114452, -254.18568191532526, -254.226702221836, -254.2555032306674, -254.3545811692067, -254.37333966801899, -254.40414910053647, -254.44207864898067, -254.4699403645536, -254.49385492910488, -254.52113487825832, -254.55000264128546, -254.57610789980734, -254.59905330519564, -254.62952170027586, -254.67602973694542, -254.6944397375249, -254.71423840699242, -254.7245349316293, -254.74889348624333, -254.76572935602204, -254.77187005056248, -254.7015669039539, -254.6538620857416, -254.58659106324689, -254.48496055782118, -254.41540825493254, -254.37097002075834, -254.33700992758068, -254.32023067101827, -254.3180593996085, -254.44899410838798, -254.53457932309507, -254.5387315710525, -254.5480251883455, -254.5353702170235, -254.57175665155825, -254.6150779805785, -254.6437691660877, -254.6673205565733, -254.70414070097078, -254.7288914041923, -254.75641983534555, -254.77642624103106, -254.79187888307425, -254.76572935602204, -254.7698891490124, -254.76850253625554, -254.75780631658168, -254.62932383003158, -254.55731948431304, -254.45630514565985, -254.39585351916722, -254.2961513716719, -254.2708927455933, -254.35438372603906, -254.427458629429, -254.432002509611, -254.48416997712772, -254.49958718671044, -254.5252866875826, -254.5353702170235, -254.55850603903485, -254.63090680059648, -254.61527582868268, -254.6605911433419, -254.68533338307807, -254.72750523766766, -254.74948765553034, -254.79643578922978, -254.79445450565584, -254.80020031291113, -254.78197312764368, -254.76176777470062, -254.760381250345, -254.75820245684963, -254.70612058022655, -254.63189616719433, -254.52054177369752, -254.467371298547, -254.352804191733, -254.33562802279218, -254.31608554868072, -254.33306166802498, -254.51322704471983, -254.54189527947406, -254.5405111473627, -254.53398615587417, -254.58105268064907, -254.58540424668996, -254.58362404260177, -254.61962856476805, -254.61408874466946, -254.62932383003158, -254.63526007113657, -254.66494542894026, -254.69127223603192, -254.7144364092315, -254.72037661955034, -254.7372087201646, -254.7429519458095, -254.75384498165948, -254.72948548017834, -254.5903493886786, -254.53438160038093, -254.43713926525618, -254.32417853220483, -254.2557005203524, -254.20934586109763, -254.28825751196865, -254.39447097486956, -254.3998037285367, -254.38973093707375, -254.4080995675365, -254.41916152786598, -254.4604548402002, -254.47310236315866, -254.52390273609115, -254.5846130417994, -254.6257622182211, -254.64851867567538, -254.66771641548604, -254.68335382697356, -254.71107041303196, -254.7425558529681, -254.75661790316963, -254.74592268138215, -254.74156562625362, -254.72037661955034, -254.58856911543154, -254.49227366210397, -254.4314098203831, -254.33266684881153, -254.25984367446486, -254.24307459772848, -254.30148000403568, -254.34668368158808, -254.39526099834242, -254.42469286877875, -254.4665808271348, -254.46302376655285, -254.50591273616962, -254.5413020781545, -254.56424120946568, -254.59727291021923, -254.6275430116718, -254.6641537295743, -254.69641946596693, -254.72512898729525, -254.74433828045431, -254.75661790316963, -254.76434278854492, -254.73324802577264, -254.76434278854492, -254.72512898729525, -254.75027988555792, -254.6447586326415, -254.5935143803728, -254.47962423346237, -254.38104132653578, -254.2993090527822, -254.26142205440624, -254.21822097674664, -254.27148468721822, -254.32496811915016, -254.42291491154168, -254.4958315404893, -254.54822293225695, -254.58125047587825, -254.591734062862, -254.6073621443368, -254.63189616719433, -254.6605911433419, -254.69028240797235, -254.7075065140199, -254.7209706558208, -254.72215873667383, -254.74176367098065, -254.70711053139703, -254.701764886493, -254.70810049026278, -254.72710919286013, -254.75344885494283, -254.76018317666907, -254.67761328828462, -254.60360331659905, -254.50630809345128, -254.42093943264447, -254.32615250876094, -254.24820372755633, -254.271287373037, -254.28016681437015, -254.36682324428514, -254.4280513002487, -254.450574837605, -254.49148303597227, -254.52390273609115, -254.54960714823957, -254.56799887504357, -254.59054719835405, -254.59964677572125, -254.59371219496654, -254.61804573442703, -254.65287254844054, -254.67266475573436, -254.693449884845, -254.72334682861, -254.74196171601562, -254.71146640796746, -254.72809930718807, -254.70612058022655, -254.68355178119924, -254.60103155104065, -254.512436288392, -254.3928909426442, -254.38262121156836, -254.32852132107706, -254.30720359865612, -254.39506349201423, -254.44761098643394, -254.4893088394396, -254.47665970551938, -254.50986636426128, -254.5438726371746, -254.56147247423465, -254.58797569654874, -254.61072540007535, -254.64040503732141, -254.67464414567758, -254.69028240797235, -254.6942417663734, -254.71839651865943, -254.73186181183257, -254.75146823983815, -254.70433868751127, -254.69384582499367, -254.70572460191298, -254.72869337947947, -254.7084964759637, -254.6425818163732, -254.56384567217378, -254.47567154488718, -254.41106249830156, -254.33997120269498, -254.226702221836, -254.2381429372819, -254.2630004539441, -254.3168750853751, -254.30740096858312, -254.352804191733, -254.3583326476337, -254.4282488578022, -254.42291491154168, -254.51045941906958, -254.55217787500555, -254.56997663832757, -254.6097361979875, -254.63882194865883, -254.6475291799008, -254.6819681560099, -254.71918855532155, -254.71146640796746, -254.67266475573436, -254.67761328828462, -254.68533338307807, -254.73205984147174, -254.71107041303196, -254.66098698133433, -254.56681223182383, -254.48416997712772, -254.35912244666665, -254.27404979944112, -254.22788569637433, -254.18509037312856]"
101002,30,1,69,"[-254.775633848374, -254.78137880681103, -254.78732213991182, -254.74513047845468, -254.7288914041923, -254.67622767978588, -254.5966794507605, -254.52133258039285, -254.44938928885094, -254.33503578247976, -254.27799622699786, -254.25353035065677, -254.2918096881866, -254.4322000733006, -254.4636166030773, -254.5017615588709, -254.52429814926725, -254.56028589185829, -254.5816460672586, -254.61804573442703, -254.6679143454039, -254.7039427147381, -254.72215873667383, -254.74374413518748, -254.76454086868898, -254.77147386778816, -254.78930331256421, -254.77107768624603, -254.78038827825156, -254.77543575097988, -254.77603004408644, -254.7084964759637, -254.61863929349877, -254.5604836548195, -254.45393395240336, -254.36879788288647, -254.22275738628562, -254.26260585222244, -254.34095830972362, -254.40039627052292, -254.41382796261632, -254.43891742130464, -254.46855701487343, -254.4958315404893, -254.49800584847557, -254.51144784989208, -254.53279982972626, -254.55989036685773, -254.59272312507187, -254.63130254631304, -254.6483207759053, -254.66514335455088, -254.68493746939535, -254.7035467431961, -254.72988153237512, -254.7635504710486, -254.76117354812874, -254.76097547322084, -254.61903500108397, -254.4693474985633, -254.31194056146228, -254.30858519457902, -254.23005542831248, -254.2704981193745, -254.37412956025034, -254.39624853458383, -254.44543753945743, -254.483774688623, -254.50986636426128, -254.53853384188736, -254.5676033260745, -254.61112108306273, -254.64277970722335, -254.68414564572268, -254.7130504000224, -254.74037736435798, -254.75542950084514, -254.72473294987674, -254.71681246011187, -254.72057463133262, -254.72473294987674, -254.74968571257529, -254.772266234569, -254.7102784268548, -254.6504976902943, -254.5695810832123, -254.48515820376207, -254.36761309604674, -254.2969407845977, -254.22709671212448, -254.31391434804848, -254.34925031127065, -254.45768836213492, -254.4912853802069, -254.50611041465692, -254.52054177369752, -254.54407037463434, -254.57472339559342, -254.60083372507273, -254.62813661502406, -254.64555021142104, -254.67563385218756, -254.70612058022655, -254.72631710693966, -254.74770515598408, -254.76830444995096, -254.75344885494283, -254.75443917404422, -254.7688987097888, -254.7780110411321, -254.69067833827293, -254.608549165628, -254.5033429437789, -254.42410021360533, -254.3443145309336, -254.27227394700532, -254.23794567484362, -254.28391609802583, -254.31786201313693, -254.4023714304126, -254.50413364360256, -254.52133258039285, -254.54861842100152, -254.55949484308624, -254.58560204868104, -254.6198264199444, -254.65762239762242, -254.67781123358668, -254.70018103479768, -254.71839651865943, -254.72948548017834, -254.74314999269208, -254.7482993197279, -254.72611908622923, -254.72374286171825, -254.72077264342278, -254.67880096471245, -254.60122937731597, -254.51283166594172, -254.41619840845263, -254.33503578247976, -254.2736551634228, -254.31371696801114, -254.35596327996313, -254.38597853242263, -254.42251981330804, -254.45689795087918, -254.47468339192926, -254.5181693830962, -254.55356213400205, -254.58579985097947, -254.65247673567345, -254.65762239762242, -254.67484208636418, -254.71285239993813, -254.74196171601562, -254.75067600241948, -254.76236200404455, -254.73205984147174, -254.73007955893536, -254.74314999269208, -254.70572460191298, -254.6396134905296, -254.55020038826927, -254.44286896817346, -254.3743270340747, -254.30246681231347, -254.27168200170567, -254.35300163244835, -254.41145756095136, -254.48515820376207, -254.46539512922465, -254.4912853802069, -254.54921165642267, -254.5749211809877, -254.56898775284427, -254.61903500108397, -254.644956526875, -254.65683074378728, -254.69958709549041, -254.6956275708969, -254.70869446927588, -254.73998127952285, -254.73205984147174, -254.7776148392585, -254.75582563372137, -254.73423818782402, -254.72215873667383, -254.6586119718381, -254.52825234860126, -254.45926919937784, -254.3798564256397, -254.28273210176897, -254.2537276372801, -254.28944155968122, -254.32141501650483, -254.344709386311, -254.40750698966514, -254.41481564301333, -254.43378059386262, -254.5274614989055, -254.5252866875826, -254.5413020781545, -254.60755998045008, -254.61270382731064, -254.6091426804242, -254.6653412804692, -254.6689039996083, -254.65979947104873, -254.7009729581831, -254.6793948070804, -254.71206040267933, -254.69542959789882, -254.6382282954851, -254.45452674657437, -254.34648625068112, -254.26714384596997, -254.16695108253853, -254.06230640222748, -254.1523626621659, -254.22374358369592, -254.30325626444994, -254.35912244666665, -254.39605102672218, -254.41086496743677, -254.42291491154168, -254.44267138791497, -254.48140298338228, -254.51144784989208, -254.5687899766695, -254.60518596738234, -254.6208157004384, -254.65623700664094, -254.67880096471245, -254.70631856984505, -254.72988153237512, -254.71740647975832, -254.7288914041923, -254.71800050217544, -254.5723499948335, -254.46223332215058, -254.3642562599364, -254.2645788730788, -254.1712885034557, -254.12043169529434, -254.18706219115813, -254.26872231654812, -254.33858926572705, -254.37630178918138, -254.41343289260473, -254.42410021360533, -254.43852227336825, -254.4725094824346, -254.50472667169458, -254.56127470973703, -254.56977886061628, -254.588964729557, -254.61666077402163, -254.63130254631304, -254.65346626989833, -254.6752379686605, -254.65445581181353, -254.6615807406302, -254.67048746233417, -254.67424826522748, -254.65168511383047, -254.49405258886165, -254.39407596497315, -254.26596000589745, -254.13442514369567, -254.01838526573982, -254.07747552429117, -254.20362667047323, -254.25353035065677, -254.3798564256397, -254.37491945738736, -254.3630715154037, -254.36149187319415, -254.39269343999604, -254.4464254652983, -254.4620357118173, -254.50215690325547, -254.529240917632, -254.5711633110489, -254.61468228529247, -254.64614389873526, -254.65960155374452, -254.68869869907994, -254.69958709549041, -254.71146640796746, -254.68137430164123, -254.68493746939535, -254.65247673567345, -254.5725477765399, -254.3804488747079, -254.2541222114452, -254.15019425616066, -254.03118582256812, -254.08969093909351, -254.0946168418816]"
101003,30,1,71,"[-139.5956765258838, -140.08966217215718, -140.48836287989354, -140.5121594669569, -140.45692759954838, -140.82527643305093, -140.7482720569127, -140.80560901960328, -141.06128957406955, -141.19811776061778, -141.36173539250564, -141.07780914562397, -141.38418164417632, -141.3294813893395, -141.03846006507217, -140.9976767892789, -140.09343552781837, -139.4329152232386, -139.24591243745152, -138.7543822578002, -138.23428659177623, -138.64946358859527, -138.80822419771286, -139.27852474513563, -139.46567455512252, -139.5758159458139, -139.75840098680086, -139.8185137172941, -140.06888241130332, -140.5404848983422, -140.45620511484, -140.58347699016556, -140.73285710849748, -140.92272624641154, -141.05837475715032, -141.19903043361163, -140.75957849879933, -140.64937283608919, -140.83284228587, -141.02559136536203, -141.24005205282353, -140.77723711085085, -139.09565537795925, -139.05244713549922, -138.50669601907907, -138.25382553444825, -138.80163866163824, -138.59732753796547, -139.133100616836, -139.49470791127035, -139.51347618346105, -139.5786698131894, -139.9931214659395, -140.0585846418989, -140.14154865243083, -140.70143316477962, -140.72016498018914, -140.80439889666624, -141.17712953767474, -141.15110064430587, -141.03475703817972, -141.01691238936453, -141.09281372665532, -141.17268935114936, -141.28329052478807, -140.7313460207865, -140.41846562603786, -139.90806297762887, -139.43137259073762, -139.10250505072804, -138.59082061567534, -138.57159652308653, -138.58777253790683, -138.80669535685738, -139.22319346997463, -139.53272484625296, -139.49726152490385, -139.77914834839035, -139.91792039961177, -139.85038011031992, -140.20337126487684, -140.40240089948034, -140.38573838219864, -140.50727900345188, -140.74325427165033, -140.7087440219074, -140.92951459809905, -141.14125109031585, -141.10648464545957, -141.34850276360112, -140.43603874966624, -140.10218091126492, -139.63154691998383, -139.15118076998374, -138.84322033898306, -138.42951551993133, -138.0886477957736, -138.43390179376402, -138.72007688090446, -139.3364477476627, -139.6062632157713, -139.79363938300864, -139.98570536911632, -140.15317745264852, -140.23079214327532, -140.35777589874468, -140.45638573532028, -140.6203396740588, -140.7676815583898, -140.95212695026004, -141.1310381898427, -140.98202518977521, -140.98208584818147, -141.14234541732122, -140.9903358777312, -140.94006208468448, -140.56839963003574, -139.61316327117558, -139.23461119094947, -138.8197503896587, -138.27056926103504, -138.21778486248033, -138.59533436171998, -139.11030032660162, -139.69363493777587, -139.75047330572758, -139.9656738744696, -140.3874826481123, -140.395001531761, -140.50215789394696, -140.60990032390012, -140.67479423837395, -140.78975805748203, -140.92757500231173, -141.13322654409018, -141.0099335682136, -141.03123630769917, -141.06420451145428, -140.8775276546366, -140.90006273787392, -141.01078312690456, -141.0016205697899, -140.8946100405093, -138.89189135345308, -138.6917172681706, -138.16405036091652, -137.85388506300336, -138.01228114289856, -138.39361700779713, -139.35410666562328, -139.84459056609168, -140.1000843157342, -140.17032446176853, -140.1953330403951, -140.10972917478205, -140.29906089074296, -140.4919770321536, -140.6103226952622, -140.69871444477317, -140.7875198504087, -140.86299271632532, -140.95485547255603, -141.30510249978116, -140.7681653526529, -140.77451546062227, -141.020978629729, -141.00884129350987, -141.3263116580082, -141.30120265793053, -140.7286865852281, -139.20278821906075, -138.9964698366589, -138.46578373442222, -138.21183820859034, -138.66788772162656, -139.04808058313031, -139.18144304060928, -139.27402558762273, -139.66183992870072, -139.4244904923535, -139.61863621392197, -139.98827699111717, -139.98307403975505, -140.01471635130204, -140.53114227067996, -140.5392793281976, -140.52607968819825, -141.00149921940758, -140.95752346316635, -140.98542214091142, -141.3667973756952, -141.08017807782724, -140.94533642004782, -141.05357771657387, -140.45253259915842, -139.03651644510865, -138.8041081644367, -138.41559825133456, -138.10133528443387, -138.16422513427656, -138.89142037003518, -139.76644880099948, -139.9807418077923, -140.11464197367212, -140.48336360911952, -140.47095731769792, -140.44753587805104, -140.78673347022306, -140.89709399474887, -141.33088343124314, -141.09961847510615, -140.84028787863159, -140.89152036599893, -141.0411312215831, -141.17956263504735, -140.9420626481812, -141.01836892612232, -140.98924390661585, -141.11450615090772, -140.26650936429954, -139.8348031485982, -139.27136174978588, -138.79634716580884, -138.40501598329357, -138.17698478395903, -138.24595096776807, -139.09335262225798, -139.43700929807017, -139.59662807278093, -139.71084838727282, -139.84083060340635, -139.9970690637111, -140.10493653225424, -140.08139743666476, -140.20595089047703, -140.44247931744792, -140.66380333597343, -140.75951803171222, -140.8826761646135, -140.84955056841457, -140.90842436025287, -141.02923321191744, -141.09342126679647, -140.9574628258945, -140.3300649466059, -139.8153517401287, -139.22242446800013, -138.66160888429604, -138.19440929871618, -138.22763877815322, -138.58654162142912, -139.38048486049829, -139.68446410522353, -140.0466722513805, -140.12177213609263, -140.27281429209899, -140.40859771803355, -140.56001801666542, -140.72373063261043, -140.89412537672314, -141.1022311868357, -141.0400991718462, -141.01296775340225, -140.99148853225913, -140.83205539929995, -140.8309053501303, -140.93145424727672, -141.04859885497825, -140.23415298862616, -139.90907852662295, -139.48876963642758, -139.036575440931, -138.6326866318269, -138.4299248937283, -138.82921976512537, -139.37680909754081, -139.72574233698094, -139.95353817596123, -140.09894619015267, -140.34250647167966, -140.46680230220318, -140.557365052361, -140.77524122372682, -140.93260593923816, -140.9642545246484, -140.7751202626897, -140.88243387335328, -141.10441864781427, -141.25978012844305, -140.99336921958167, -141.00562524959034, -141.12678325084752, -141.23025095340225, -140.2352933120429, -139.89384683956973, -139.31914871905636, -138.84504415100366, -138.42904766712815, -138.04629545370287, -138.45981572214228]"
101004,30,0,67,"[-197.1567596904169, -232.65391035649648, -246.9894230305369, -247.65323860630338, -232.32548114283122, -207.67616537784107, -193.85958477000952, -192.45373668720205, -209.32123754226575, -222.8785319822905, -240.80899239732344, -249.28771135667688, -253.94830047539256, -254.9726951143786, -253.92684966262686, -252.55896408201016, -252.15373782690835, -252.375527884388, -252.11939719711742, -252.5846625369623, -252.57453827891345, -252.10678857944782, -248.25892207729234, -242.29513021320525, -236.2828731512796, -230.3813416916615, -218.47346607850565, -191.90291177982965, -145.22718589806664, -87.64916367231459, -31.61327053065663, -13.497605345953012, -56.41952697270764, -67.93597137844485, -100.02594746401698, -144.84847868649257, -198.92387930401227, -235.60008024222222, -247.90468451864862, -249.6620833949228, -240.45203544368817, -222.6631647973797, -206.7743901900328, -203.27856241539624, -214.4063926044288, -224.54762565573293, -232.07389081967048, -243.35321976800233, -252.78107787018035, -252.23351402614477, -254.36840295271355, -253.58412883903247, -253.50545740377981, -252.08370837776167, -251.94124779617727, -250.60553891242384, -249.6740681702328, -246.94493535660317, -242.55286389591703, -229.63477929355435, -208.4043554583153, -180.29572967580665, -132.8258168603296, -88.72600056051155, -31.913511432939746, -38.40892547142276, -100.61989618957456, -114.1596737319521, -144.64169761423085, -194.3552916990177, -231.48220101304813, -246.66720365796465, -252.06780683237844, -253.74456571401134, -253.6249552032707, -252.48870940026706, -249.4448449562537, -243.24049460212026, -232.37952319894697, -222.5021389865957, -219.11086473463226, -220.18347390885975, -225.67363929133228, -235.00259982428773, -242.5539411776898, -249.38845903855258, -252.76645311589982, -251.2236486196385, -239.22197919008977, -229.63284814251574, -225.07744829338995, -228.38284288442506, -224.46779068397356, -246.81435706769446, -253.4681987026067, -253.8340035464097, -253.94003459542571, -249.1406256534172, -244.7493946062065, -234.3104192945874, -219.3941568989275, -185.92682539322274, -117.1333902193065, -82.63416545848004, -24.55909502729105, -39.780216338236364, -102.3633190244823, -117.94267828180263, -164.02026088466923, -209.9121965219419, -238.00842003724804, -248.49049249151776, -251.76547784883314, -252.54222396233945, -247.86474135968186, -237.57148823126803, -219.72561623690962, -208.41880431581552, -204.0460487600748, -214.676658311178, -224.45964117420198, -232.9620671464262, -239.83077829541338, -246.2930516751641, -251.9253642180949, -254.99948248342585, -255.00007782222292, -255.00007782222292, -255.00007782222292, -254.19297782880548, -250.38876089390172, -249.79169414220294, -251.28221645531565, -253.19673727255028, -252.87842433905635, -251.62550212599626, -248.15626566738715, -243.889549674809, -236.06685402931762, -217.19288454183481, -161.1818658964121, -86.98219024590048, -64.55199630107035, -29.183577680223088, -75.41119202708515, -100.94988459173325, -138.76237361706634, -188.06836052739726, -231.6034405130376, -247.78864121199933, -252.49843763364882, -253.3643243978857, -251.30303002414328, -245.57040954132512, -237.99459033872847, -233.61797361878638, -232.14212337744226, -233.19699869263928, -234.14047857064767, -234.54690437025872, -239.57353906714962, -245.03180021760994, -253.34160099954227, -255.00007782222292, -255.00007782222292, -254.8741263908713, -254.14802588715634, -252.11493554207365, -248.9702538027097, -250.81770076247292, -250.6902838483908, -249.93497434442315, -248.7496849540109, -246.26510080733044, -238.3930097963252, -222.0335445679809, -173.7903176617785, -114.37461342239337, -91.31268498642446, -30.92708289188754, -51.039552966601, -118.55885518900779, -135.90017535506496, -180.9535695903901, -225.21048833293239, -246.13265188082994, -250.92391645620415, -252.0864234762646, -249.0304252296921, -240.20332283584628, -228.68951770499493, -220.98027922811002, -215.2698576211324, -220.1839177779346, -229.83918201464738, -237.2374546586639, -244.13413482027642, -247.11217295363411, -252.3459851597426, -255.00007782222292, -255.00007782222292, -255.00007782222292, -254.9181456566202, -254.4604548402002, -252.34617949717133, -250.82826068318494, -253.01979788994444, -254.3764992663784, -251.68348422667256, -247.2753452134973, -235.96791349115418, -210.5773896166909, -180.53483313461848, -130.9687780537465, -71.78876877233472, -42.75693010800604, -60.02302222795376, -121.67394413031927, -145.5395828845415, -185.02801649537162, -229.39347628391948, -248.81258376457455, -253.18128187753, -254.67147713653722, -254.99253706951964, -254.82695144779382, -253.073342380034, -247.851804786542, -237.145425359297, -220.99294740668648, -214.84035644340764, -223.46814486044408, -235.0125442347443, -243.86304909560724, -248.00319095874838, -249.3501235830563, -230.43739996118003, -229.33391191147757, -225.5206480062273, -227.36261586008115, -223.58479429612106, -206.18316681537715, -205.5942827384127, -204.08646285217793, -203.41876627669845, -195.95085530781216, -210.66633749046866, -244.92209164826653, -254.4600596253651, -254.88185840432615, -253.66932952239685, -249.30383310254578, -239.97164311038168, -217.9485815083928, -166.1028015495561, -86.92341974299933, -84.48820138138093, -48.89661411055377, -100.54221671546955, -137.81915394761634, -170.50551682939977, -208.95735591495287, -229.78631492653807, -242.79387454328418, -248.50914987224536, -251.13411574993427, -251.41698758452628, -249.04746015977892, -244.99754008024271, -240.2283294501295, -238.6279059266995, -236.32002261725486, -235.66735136565805, -236.40476027286073, -239.49421674858846, -244.69858320214834, -246.255106672719, -248.42606127140283, -250.9146934456031, -253.29342520859777, -255.00007782222292, -255.00007782222292, -255.00007782222292, -255.00007782222292, -254.99432299695954, -255.00007782222292, -255.00007782222292, -254.9988871474086, -254.70810049026278, -250.6371677625238, -240.72884999390223, -220.8060529443952, -198.85084396456404, -149.68682575945496, -99.9587254995572, -63.06051438380946, -50.174578193298686, -102.35289524032643, -147.807627698176, -188.69771681924536]"
102001,30,1,68,"[-253.76971987515586, -253.78681969107512, -253.69918293176747, -253.68130932288685, -253.73788497814726, -253.59747447346814, -253.51683329490646, -253.43781155711073, -253.40527598337903, -253.24526773652045, -252.9057494437031, -252.86944737912359, -253.02272857140653, -253.11576413661624, -253.24331050302422, -253.2900966641029, -253.36471621636247, -253.43291108694544, -253.53821488731333, -253.71902362273008, -253.604344097606, -253.61651405970633, -253.64321355199584, -253.6599035895737, -253.68170212238846, -253.67188249976, -253.68366613814288, -253.7182377937733, -253.75242585367593, -253.85642202439013, -253.92448832669595, -253.89969695067757, -253.80195593340594, -253.7516398177963, -253.6638309764513, -253.6129807245776, -253.47839473224136, -253.41135126941558, -253.22804511998714, -253.20280256332387, -253.2301978189451, -253.29694964518174, -253.48917988703727, -253.50526127667874, -253.5860913442377, -253.48957209177829, -253.49722032681464, -253.516048717913, -253.5809888938848, -253.5990446404593, -253.6438025747551, -253.83105404145022, -253.87077979632693, -253.93314677315732, -253.92232380733924, -253.8477688092698, -253.9760541513811, -254.011099371077, -253.90717320503276, -253.93472109959072, -253.59433419781553, -253.52566012071622, -253.58354009339413, -253.4511417948026, -253.54861274467322, -253.31496496403634, -253.34845676793026, -253.52487548908783, -253.5613659983084, -253.49192534571128, -253.49506308558892, -253.52840636966232, -253.521540858849, -253.69623655913978, -253.59492299357635, -253.59237156502567, -253.63594916289378, -253.60846605073715, -253.77954707394898, -253.80608431285222, -253.88631948905058, -253.8987132657758, -253.70880822596632, -253.72865042251973, -253.75458747745463, -253.822599173781, -253.8540619981236, -253.7870162540798, -253.68307693022342, -253.55901145492126, -253.41742684676393, -253.40253240129582, -253.5095761430058, -253.49604364523086, -253.28050311354068, -253.33219940623454, -253.44506460076238, -253.47721822541965, -253.5103606799373, -253.53174118051226, -253.69368309155257, -253.74319023963386, -253.6443916002502, -253.64674772958793, -253.70684382089462, -253.71077266145826, -253.722756376752, -253.72648924060925, -253.73533067210786, -253.9026480511168, -253.91622399677632, -253.86389573040393, -253.72923984215774, -253.7015400791448, -253.65538724500536, -253.59335287762323, -253.52997568148706, -253.5480241639384, -253.37314060674387, -253.3249528209624, -253.25544583840872, -253.29420840825145, -253.45819954718337, -253.30301973810847, -253.43330311758467, -253.42997089581044, -253.28911769707648, -253.32025255488787, -253.4268347671268, -253.55528351732025, -253.50153491941674, -253.71980945655474, -253.7388674172408, -253.75596307539809, -253.6253478282744, -253.79940033724253, -253.83754304284335, -253.83243046856782, -253.73316937639578, -253.67168611506153, -253.54174613945995, -253.43781155711073, -253.53860724380547, -253.5158525744234, -253.4989853696728, -253.50486902338696, -253.38489650633983, -253.5919790421131, -253.6436062335314, -253.56803744204817, -253.6041478174657, -253.6789525514217, -253.56548655445928, -253.76716492813404, -253.8005798367689, -253.83066077930127, -253.87235334953138, -253.92684966262686, -253.94475788951576, -253.95440182721308, -253.97132969302854, -253.99318178647118, -254.0179914229101, -254.03630640653407, -253.9370826258429, -253.80470817144737, -253.6438025747551, -253.712540679411, -253.65499452699117, -253.3578595679764, -253.3043904445176, -253.36060218279667, -253.38803159714035, -252.7077761222116, -252.40779955275744, -252.78809835337103, -253.34845676793026, -253.50271165198015, -253.39586966356435, -253.51134135793012, -253.85150535251947, -253.9557795923935, -253.8334136399341, -253.88907355708918, -253.91661752409794, -253.80274228104122, -253.73316937639578, -253.86330568498235, -253.9177981133815, -253.9116985202497, -253.93806660807806, -253.94298663364148, -253.77207833345466, -253.68484456219295, -253.65892176185616, -253.60728833616994, -253.57156952497988, -253.53762635485208, -253.3811736867746, -253.36373667244268, -253.41037136486776, -253.57176575469464, -253.59806328381126, -253.4511417948026, -253.40233643342032, -253.5831475978207, -253.59237156502567, -253.3643243978857, -253.32025255488787, -253.352374516464, -253.48878768350994, -253.5246793319396, -253.39116676552175, -253.4711397808206, -253.56077735836212, -253.63771613816124, -253.6826841264643, -253.74397622316647, -253.77581264874973, -253.73493770651245, -253.6006148268942, -253.6846481574243, -253.6445879426898, -253.49172923954805, -253.4035122452199, -253.53056417843007, -253.35511701253282, -253.5095761430058, -253.43996782402218, -253.42605074708365, -253.55528351732025, -253.5888389025571, -253.6273109715272, -253.6253478282744, -253.45800349319848, -253.50467289719626, -253.68621940408863, -253.77089909882562, -253.79094757811546, -253.57784902649536, -253.5941379331695, -253.76559267861444, -253.82869448683485, -253.84757215214586, -253.8446223318503, -253.82987425865906, -253.63280793431727, -253.46564982336227, -253.5454736789977, -253.4605522186597, -253.39998484255588, -253.39116676552175, -253.5129104585004, -253.5258562793821, -253.53232968565152, -253.56391680299137, -253.53232968565152, -253.54017668191761, -253.45388642957752, -253.4627088725485, -253.70802246028722, -253.73277641749482, -253.62574045449375, -253.63261161011465, -253.68602299719115, -253.69879007812963, -253.6775777882895, -253.707433139222, -253.72589983375056, -253.7553735315961, -253.7241316296047, -253.9079602047877, -253.85307866679682, -253.74574470391815, -253.6438025747551, -253.49820090314586, -253.40018080679422, -253.34297212353627, -253.54704320211957, -253.60297014300428, -253.5908014806663, -253.63005942313808, -253.56666388081507, -253.57490547143556, -253.64183917619619, -253.8076570641595, -253.8343968189167, -253.86782943664383, -253.8914342343934, -253.92114317597097, -253.81453808031407, -253.81670076244933, -253.93727942167988, -253.86979633547972, -253.99003170321453, -254.0024356079369, -254.0077519379845, -254.01464380816535, -253.90304153635864, -253.82535185955518]"
102002,30,1,66,"[-253.76559267861444, -253.6343785388796, -253.76500309006732, -253.7917338575383, -253.75340840537353, -253.71509452662357, -253.69820079995418, -253.74161828717632, -253.7015400791448, -253.7038972703235, -253.7052723187394, -253.87982799364661, -253.9116985202497, -253.9382634054402, -254.0061767058809, -254.01169010372254, -254.02724705229315, -254.05580590437265, -254.1097898225799, -254.12082585584594, -254.0601395326478, -254.1111692743171, -254.12457044207144, -254.10466627581994, -254.11077514372107, -254.13343963913934, -254.07156526135245, -254.1515741466101, -254.1196433778594, -254.03000417866062, -254.0380789644655, -253.9126823057723, -253.88081153221836, -253.89123750960798, -253.9158304706746, -253.9691643750252, -254.01996064927152, -253.95046543764158, -253.83046414868375, -253.79527217523312, -253.85170201573763, -253.8713698764927, -254.07156526135245, -254.08200691209757, -253.94771003754929, -253.93786981102096, -253.96975491263711, -253.9624718073522, -253.97625100762698, -254.13817013071827, -254.16596532570273, -254.15374257616193, -254.0829920177913, -254.18489319300815, -254.22985817842408, -254.23794567484362, -254.09954293566517, -253.8051013531831, -253.88061482389438, -253.8865162062147, -253.85012871852442, -253.78544375856808, -253.76146561631654, -253.7893750338856, -253.82869448683485, -253.81807703390646, -253.68504096726568, -253.90068064320164, -253.91425637846527, -253.90363176650817, -253.89733611971852, -253.8814016590193, -253.87314013344863, -253.90500898086202, -253.9246851030128, -253.99219737705985, -253.8837621936574, -253.88749979660795, -254.00558599887907, -254.02350533366413, -254.0260654450282, -254.05876063488716, -254.12437335583462, -254.11412529275822, -253.97664472103415, -253.91445313892413, -253.866255939519, -253.67522108615762, -253.64183917619619, -253.74849572297452, -253.83184056940382, -253.87117318279934, -253.89202441057876, -253.97585729544042, -253.98845669088703, -254.0024356079369, -253.99613506048948, -254.0024356079369, -253.99337866926913, -253.9227173535684, -254.04280590655142, -254.07511138611943, -254.09579908697046, -254.13580486291542, -254.15196840377644, -254.15669958518328, -254.18114682884448, -254.16655677888667, -254.18016096189277, -254.1825270554249, -254.18114682884448, -254.15945952235055, -254.0485178629439, -253.9542050048362, -253.8934014990148, -253.86310900378467, -253.80333204496532, -253.65106741372983, -253.76971987515586, -253.8098196290335, -253.82692484966134, -253.7095939965126, -253.70802246028722, -253.74928173937553, -253.78052983568975, -254.02291454606205, -254.03335219828355, -254.01169010372254, -254.01050864117903, -253.97959761049745, -253.99121297527913, -254.02744398790603, -253.919765786584, -253.9246851030128, -253.9355082701278, -253.95459864989502, -254.0950109223555, -254.04615426362898, -253.97625100762698, -253.96680225203997, -253.87746753216564, -253.70095078819412, -253.63025574338968, -253.55528351732025, -253.57961519233416, -253.73434826040156, -253.77286449596264, -253.78347816658146, -253.74476221156831, -253.79704137107873, -253.6049329398498, -253.67875615577626, -253.8163075447744, -253.82771135202552, -253.88435233417556, -253.9089439613422, -253.90422199940176, -253.8896637222997, -253.8991067388218, -253.98688169809301, -254.04438159300486, -253.96581804709766, -253.99278802179097, -254.04024545775238, -254.04635122855876, -254.00184491833525, -253.98136937713448, -253.86841950309443, -253.74692370478098, -253.71136199803794, -253.6357528338282, -253.4605522186597, -253.60159620328992, -253.64556965944752, -253.71155844417294, -253.75733868825571, -253.81552111307946, -253.7160767892415, -253.735134189158, -253.7724714140998, -253.83931282807688, -253.62456257948264, -253.6339858859154, -253.82751472597752, -253.8546520005764, -253.7249174950714, -253.80333204496532, -253.86546919827103, -253.8737302245869, -253.8979263233423, -253.943773855424, -253.96266864254332, -253.93019496370877, -253.65499452699117, -253.56764499446314, -253.49231755894795, -253.4344792167794, -253.43487125227009, -253.6049329398498, -253.4970242124588, -253.53939196043277, -253.6392868035118, -253.66304548934667, -253.69407592937412, -253.707433139222, -253.7276680625418, -253.7598934374177, -253.82063300621016, -253.84088599122438, -253.80864004362468, -253.82181270309732, -253.83577328228782, -253.89536879412293, -253.7950755994395, -253.92114317597097, -253.90717320503276, -253.81709398134268, -253.82240255565316, -253.85524200577174, -253.7553735315961, -253.6826841264643, -253.72197052467263, -253.6530309551604, -253.62613308192869, -253.59668939726382, -253.62161793981875, -253.63987580803348, -253.70507588233883, -253.7504607731076, -253.75419445221019, -253.84914541766926, -253.86448577856837, -253.8165041534596, -253.84639221580082, -253.8869096414575, -253.84422902765738, -253.96444017299376, -253.969951759118, -254.06467030210644, -253.9126823057723, -253.86979633547972, -253.97290449294943, -254.03866982260632, -253.93865700107955, -253.9595193160989, -254.0902820373439, -254.08200691209757, -254.04300286628919, -253.8699930270396, -253.80608431285222, -253.62436626804444, -253.5596000866685, -253.54704320211957, -253.46996334134477, -253.6691331416512, -253.57883022670183, -253.59374540478876, -253.74967474940215, -253.77168525402726, -253.68837990003286, -253.6879870798513, -253.8558320137096, -253.87235334953138, -253.91760134773853, -253.92763678436341, -254.0437907082943, -254.02271761747204, -254.0091302821023, -253.9981039479896, -254.02586851155274, -254.06171543413097, -254.0894939069546, -254.05718477005993, -254.0203544982077, -253.9467259805783, -253.82181270309732, -253.78603344210137, -253.73827795287175, -253.71922008072988, -253.6885763105798, -253.56038493324957, -253.7960584814527, -253.8184702570641, -253.74515520759525, -253.71666615046306, -253.73690254666144, -253.7799401777319, -253.68229132392162, -253.87432031846828, -253.89241786289327, -253.90009042677252, -253.92507865656142, -253.82279579221344, -253.94436427496396, -253.9788101665934, -253.98392863925167, -254.00460149331482, -254.01582530917648, -253.91150176405998, -254.0286256079957]"
102003,30,1,67,"[-253.96581804709766, -253.97290449294943, -253.9754635844745, -254.02448998577424, -253.96050347222223, -253.8853359078026, -253.79940033724253, -253.77817122029913, -253.80824685092492, -253.7848540777751, -253.78976816811604, -253.8214194695832, -253.82476199329167, -253.81414486933997, -253.7760091947044, -253.84678552669706, -253.86605925374985, -253.94692279136237, -253.98471611489504, -253.86271564230358, -253.97841644647244, -253.99534751403613, -254.00637360882538, -253.934524307719, -254.0674282408969, -254.0977695198997, -254.12299376073648, -254.14802588715634, -254.14842013331412, -254.14112677738626, -254.0495027089723, -253.95774785429847, -253.9177981133815, -253.94515150528784, -253.9048122350396, -253.78524719799927, -253.74220776706548, -253.84993205774396, -253.88435233417556, -253.7526223634067, -253.934524307719, -253.9675896214862, -253.95105588829782, -253.9756604398049, -253.99101609583866, -254.01484072423727, -254.03571555938714, -253.9423962205076, -254.0560028842687, -254.06664025227553, -254.0869325169549, -254.09737543086902, -254.12043169529434, -254.14664603523633, -254.18154117776652, -254.1894284131759, -254.20086577399888, -254.16517672573946, -254.02429305474155, -253.98865356635972, -253.91740458240054, -253.90520572698935, -253.9209464051437, -253.94574193123387, -253.97270764189128, -253.96306231384094, -253.8837621936574, -253.85799539961312, -253.95007180539614, -253.99534751403613, -254.0861444073443, -254.1147165046993, -254.11767260566975, -254.12161418061734, -254.16734538741377, -254.16281095521066, -254.17700623903826, -254.15374257616193, -254.15453110517313, -254.19633014569723, -254.23538129100086, -254.15472823819047, -254.13876145454824, -254.1868650079785, -254.0875236023713, -253.94967817437094, -253.88553262344254, -253.84324577250715, -253.80608431285222, -253.76814759397715, -253.79468244876585, -253.83891954033672, -253.8355766437494, -253.8220093203113, -253.84481898440382, -253.89123750960798, -253.92901425914448, -253.97526672944932, -253.9967257235345, -253.8772708290235, -253.86782943664383, -253.9908192167034, -254.05245729287245, -254.07373232583657, -254.07806656570847, -254.09579908697046, -254.08969093909351, -254.1032868946852, -254.05954857463186, -254.0329583090415, -254.0961931711115, -254.04162415453845, -253.9967257235345, -253.96207813788527, -253.9177981133815, -253.88002470075133, -253.86743606053398, -253.876287317885, -253.79448587388583, -253.91661752409794, -253.943773855424, -253.95932248578956, -254.0026325050813, -254.02882254574607, -253.99869462019183, -254.01720374091437, -254.05383612221132, -254.05403309905296, -254.01306849058082, -254.15275692177863, -254.1701055557969, -254.14467484419902, -254.14546331694459, -254.1762175705603, -254.19140029851025, -254.17365443180745, -254.10427216539617, -254.14171811497536, -254.09993703141913, -254.04694212518058, -253.95538594367363, -253.9237012244784, -253.87963128684672, -253.85425866530315, -253.75596307539809, -253.7604830022219, -253.8935982271537, -253.78033328273267, -253.76362739411155, -253.94967817437094, -254.01464380816535, -254.01247775152405, -254.011887015215, -254.06959523480907, -254.08437117859575, -254.0768844856236, -254.07570241653778, -254.0701862395643, -254.06230640222748, -254.07452035845077, -254.0762934497058, -254.07826358012534, -254.08220393262522, -254.08437117859575, -254.09146424209524, -254.03079194004417, -253.96936122059068, -253.9427898289585, -253.9315724662446, -253.87215665431407, -253.73199050334443, -253.7809229425173, -253.79900717316997, -253.83007088836263, -253.82417212976972, -253.7630378146965, -253.88081153221836, -253.91150176405998, -253.82063300621016, -253.8229924109505, -253.9754635844745, -253.99357555237225, -254.0109024608057, -254.0621094125565, -254.06998923767372, -254.0731413045838, -254.07826358012534, -254.07038324176037, -254.0768844856236, -254.06703424597524, -254.07983970645932, -254.07649046137286, -254.03532166281613, -253.97172339117782, -253.89930347580218, -253.87510711457736, -253.85799539961312, -253.8355766437494, -253.84009940721324, -253.82535185955518, -253.8581920728873, -253.8587820945383, -253.8837621936574, -253.87530381436665, -253.88710635953615, -253.88277863222368, -253.90973097207433, -253.92429155068413, -253.9488909159815, -253.96975491263711, -254.00184491833525, -253.88277863222368, -253.8985165297101, -253.91445313892413, -254.00066354737385, -254.04162415453845, -254.05245729287245, -254.06506428969635, -254.04891180043901, -253.9811725129541, -253.80195593340594, -253.85071870269397, -253.8511120269973, -253.80431499092975, -253.707433139222, -253.78406784098047, -253.8235822689893, -253.84068934476457, -253.84009940721324, -253.7809229425173, -253.8355766437494, -253.87963128684672, -253.88592605563684, -253.91091149732037, -253.93432751615234, -253.97132969302854, -254.0081457490632, -254.0128715772566, -253.97920388793509, -253.9821568369079, -253.98392863925167, -253.8845490482913, -253.99436308783723, -254.00735812812692, -254.05659382578978, -254.07176226568708, -254.0621094125565, -253.9760541513811, -253.9396409955159, -253.8601588223901, -253.81827364533297, -253.62770360382467, -253.61572886561393, -253.80608431285222, -253.83282373620042, -253.81335845104678, -253.81217883274437, -253.76146561631654, -253.85622535385855, -253.869009572288, -253.77011294849473, -253.76382392119203, -253.91543694579258, -253.94160900726632, -253.919765786584, -253.93314677315732, -253.94908773012128, -253.98432237646296, -254.00873646797078, -254.0026325050813, -253.9959381734183, -253.99239425833167, -253.99101609583866, -253.94928454456613, -253.9557795923935, -253.88199178856368, -253.81414486933997, -253.78524719799927, -253.8438357246832, -253.81729059124626, -253.60748462117155, -253.5947267280189, -253.7029151020092, -253.7394568843486, -253.77070256078625, -253.80234910661449, -253.82672822483187, -253.86566588312587, -253.8886801151398, -253.8979263233423, -253.90343502282008, -253.9089439613422, -253.92035609449152, -253.93235961726094, -253.9412154024759, -253.85779872664364, -253.95203997882635, -253.9565668934943, -253.8833687681694, -253.8699930270396]"
102004,30,1,66,"[-254.97051268783133, -255.00007782222292, -255.00007782222292, -255.00007782222292, -255.00007782222292, -255.00007782222292, -255.00007782222292, -255.00007782222292, -255.00007782222292, -255.00007782222292, -255.00007782222292, -254.834482409989, -245.22838563280627, -207.3074827960792, -160.6553888711565, -132.33182183121684, -127.94336708895358, -125.75070681284302, -125.73174362957118, -114.28310345573243, -108.2243504293039, -106.0859475213373, -104.53867647086973, -103.41959786703194, -102.01698923633121, -102.22073589446185, -102.69748980844867, -104.98427815018515, -108.05661009526473, -112.01359190775553, -115.78797094187314, -124.95600207910435, -162.7213351820143, -218.4934242594582, -236.26293995112795, -236.5534109547901, -225.33268324484015, -225.82637138158847, -192.7132773196228, -198.9880256175752, -206.40109855499705, -210.50285043228666, -220.32738119252605, -234.73879068008125, -238.0468058705668, -239.92982307125112, -241.7622146472472, -237.85327384884297, -229.95467155297828, -236.53923756214505, -238.58012533702436, -239.65168700394068, -238.867966892216, -238.26403992324245, -236.62737921835767, -238.17588686300107, -242.51462659171736, -244.17943503464807, -245.0985158849899, -246.9685732547062, -249.20296424290729, -247.89793265819034, -248.5956888938793, -245.30273743092042, -249.6198604987065, -250.06677707142478, -250.84323809552973, -253.3039988126013, -252.94401451261172, -240.45115319982682, -186.79947347027894, -116.44965552338908, -116.6638420774545, -105.14908662420956, -127.20330906401702, -126.0535397666661, -120.19955613433355, -111.32235341441324, -108.1500165193894, -107.99759661099739, -110.31293092303713, -115.87944887681776, -124.01360981905299, -141.1413118858154, -208.58451278930463, -237.925638707663, -236.20350106254452, -218.6231684379856, -214.07734799410696, -172.50483421015088, -185.74080634875648, -193.7800203200827, -199.32768651650125, -212.3527101589972, -217.30364947045211, -219.69629921661073, -222.55457908746305, -231.4923403425581, -236.8468226225688, -238.92230850559625, -236.29071105713896, -235.12468776931132, -236.5546063788238, -238.413130584795, -240.05989958613898, -241.8583983920886, -245.5676489522512, -246.14004750479629, -245.25408239106076, -243.47871316740788, -240.36102200564687, -238.1590949561906, -236.98745956126183, -237.24174881350163, -236.2809989464811, -240.01031325788344, -238.06842496452623, -241.97538522434064, -242.1994939732854, -245.66799021136728, -251.95887703865463, -252.58933554520198, -249.75704197171396, -224.9505880349931, -170.01928133944082, -112.28043002853013, -69.77168070816329, -125.143362803468, -134.01515405587352, -133.3567756694598, -128.66702190445412, -117.4774560306552, -112.00999260262996, -111.85204275822284, -119.40699904961255, -137.16067728499968, -190.38228684179333, -236.47965958822647, -229.63815888603034, -226.6823382587238, -208.3445929405601, -227.56804921531494, -242.40034562041527, -250.22164626859177, -254.81803377872896, -254.99987937564836, -254.99968092938266, -255.00007782222292, -254.99987937564836, -254.23617032667337, -250.08185454542678, -241.2485109252805, -228.97541416059934, -220.45501182438684, -219.7917924363773, -226.8092758743374, -237.0548394144636, -245.6681743991375, -250.27764495969376, -251.2930082458035, -250.85418425881764, -249.77017820145957, -246.94344650663987, -243.67516918271733, -242.09516829260363, -243.40763257162132, -246.66813210637886, -249.4034548243094, -251.53066237610386, -253.39822117805, -254.98975900989237, -255.00007782222292, -254.9988871474086, -250.65116368017442, -221.0934500550929, -175.49497380723992, -148.19481555586512, -133.48607352468497, -143.84582459914176, -140.4096807133482, -135.1729315864163, -130.39889717879615, -120.47364411540644, -116.24664567389493, -115.99492365121874, -116.2652481267943, -121.9027649944456, -128.1749879812723, -139.18368959322953, -164.91220653307403, -219.88308959663829, -244.1275867823765, -241.99986853853997, -239.04693467373343, -217.61580950597286, -228.13352010850042, -242.53580820966724, -248.53516180536332, -253.4987892525859, -254.95047579032547, -254.99987937564836, -255.00007782222292, -255.00007782222292, -254.98082994248594, -254.86441247479905, -254.44919169846605, -253.8914342343934, -252.17527824937238, -248.18088794330328, -243.0652916679648, -237.7970013208122, -232.2204347179011, -227.45541757196705, -225.1012601878466, -224.0995019023187, -226.47004750984547, -234.0949796782382, -240.93807537780077, -243.4320448900964, -245.00376848351436, -244.6359204998585, -244.90708075722605, -246.00053003440718, -249.0323178846199, -252.5936192879862, -254.90366917522513, -254.84855461118232, -245.64533722163705, -200.17288407908683, -151.75225761991587, -125.11545697287569, -114.5327269568731, -134.7791714414753, -132.63226493261527, -127.1664321291325, -120.79594749079386, -113.28975582906166, -111.20855430576361, -111.3093824702075, -112.72114562965184, -116.14746442503159, -125.33742263234217, -159.3579189461669, -230.94282919238023, -232.82318810098505, -226.7758409364755, -209.5781573598282, -220.83923898179543, -238.68492017126866, -248.09933362155974, -252.85715388117637, -254.99968092938266, -255.00007782222292, -255.00007782222292, -255.00007782222292, -255.00007782222292, -255.00007782222292, -254.99987937564836, -254.79088827286972, -253.7082189012507, -252.4221883779638, -252.37377845145232, -252.69315984826227, -253.0889800823831, -253.0709968913518, -253.50565353118432, -253.95400818276443, -253.60100737654105, -251.93388686463905, -250.17445864375776, -249.37820979216832, -248.59229407132375, -248.50669975336655, -249.12338857075082, -250.06047942440375, -251.44554136339391, -253.21747785593178, -254.7669178544438, -255.00007782222292, -255.00007782222292, -255.00007782222292, -255.00007782222292, -255.00007782222292, -253.70802246028722, -237.74610280539966, -205.53663648047916, -173.79234554163523, -143.41820015345445, -129.34936091144186, -116.06045472094415, -114.9438190028614, -108.19901327466211, -109.1847183379478, -110.67853470766977, -116.42946329524482, -125.97130190208323, -148.66419097180474, -183.49594866347056, -237.8234081175102, -244.67263731520933]"
103001,30,0,86,"[-252.8298392759315, -252.89306205361484, -253.00065244163738, -253.0672832898515, -252.6933547207934, -253.5158525744234, -253.17306585343053, -253.5454736789977, -253.1785431435801, -253.22784942189674, -253.61317701839076, -253.65479816844007, -253.70566519245298, -253.4636891819033, -253.88041811587524, -253.6153362703909, -253.6491039026988, -253.6591181267916, -253.9008773826211, -253.40762767245013, -252.81091761714117, -253.19301997989416, -253.2566202874266, -253.65479816844007, -253.75851779686153, -253.83616656027866, -253.62416995691015, -253.98353490326113, -253.96739277866695, -253.66677659642002, -253.62377733555323, -253.66088542489186, -253.9412154024759, -253.96936122059068, -253.96148763597327, -253.72609630239918, -253.40762767245013, -254.09757247523157, -254.44859892915244, -254.28214010777518, -254.3188489485588, -253.61376590165355, -253.20730280554957, -253.3678508078048, -252.92683284536704, -252.96783841309716, -253.46643408843903, -253.52095240379518, -253.54880893885874, -253.25779474733733, -253.63241528621597, -253.6473367687619, -253.2466378179688, -253.28324405383051, -253.30497789466278, -253.73218698142563, -253.43781155711073, -253.82456537181307, -253.88789323489917, -253.92980139430065, -254.02567157838263, -253.66206363730666, -253.71725551442267, -253.71745196968428, -253.2828524872999, -253.14353169489584, -253.44153604118551, -253.4703554866233, -253.79940033724253, -253.55057470019176, -253.53174118051226, -253.5158525744234, -253.76067952443205, -253.0778380215333, -253.0768606945769, -253.46643408843903, -253.4317350023048, -253.66932952239685, -253.6371271436699, -253.23235055450363, -253.20632447841444, -253.16387236343968, -253.5601887211488, -253.53193734858843, -253.47643389360596, -253.29557901930002, -252.70348850660702, -252.71069957990807, -253.18558572202357, -253.2642544715629, -252.9235139286624, -253.3188816768045, -253.27149758454107, -252.38816339797793, -252.39477324755595, -252.91746201066567, -253.05184369432368, -253.0649379134789, -253.1703272972269, -253.18265126672458, -253.24546346153403, -253.62044010309836, -253.62750728752397, -253.20808547270096, -253.07998816740798, -252.86749595043125, -252.69666759980967, -253.08350666673874, -253.10950749974126, -253.49839701932243, -252.88330338896196, -252.46497565651143, -253.32005671425324, -253.3018448587077, -252.910434340308, -252.9209759923059, -252.96295610069416, -252.95924566930717, -253.01882101121046, -253.40272836947446, -253.4199747562243, -253.40429612581514, -253.40155256494924, -252.88408405441862, -252.74110755014595, -252.55000978846135, -252.43969051157424, -252.61542968599423, -253.21375995425194, -253.03757840095264, -253.53154501273963, -253.1355136757452, -253.11928363079053, -253.13883815863068, -253.17991250314864, -253.17756503867164, -253.20456350862227, -253.57215821503527, -253.62044010309836, -253.29694964518174, -253.33219940623454, -253.31476913157724, -253.198889439241, -253.04050949432826, -252.92780901391575, -252.96237023587022, -253.00709905474628, -253.1288649719308, -253.19360691358327, -253.24761645665103, -253.25916496433408, -252.84154481268567, -253.68818348979, -253.69937935904264, -253.42467872368073, -253.75851779686153, -253.4780025620873, -253.51565643123732, -253.2850061182007, -253.68621940408863, -253.6907368466691, -253.77777812199645, -253.27815378336513, -253.091325904419, -252.98268180017868, -253.0657197007728, -253.54213850688157, -253.58785762489396, -253.33082839884435, -253.38097775193302, -253.42056274260648, -253.46016010371395, -253.53350670412632, -253.58550258948665, -253.27815378336513, -253.81414486933997, -253.81198223075998, -253.51997165144275, -253.5519480871209, -253.91464989968793, -253.80962303070396, -253.47859081777347, -253.4883954811963, -253.5174217308384, -253.7272751206806, -253.12456305557123, -253.501731040752, -253.52664091708138, -253.53448756120358, -253.56175842645766, -253.2327419649012, -253.23509045269628, -253.2360690021338, -253.6506747090917, -253.69604013673123, -253.70232580467078, -253.72472102824833, -253.46290493381284, -253.48682668407793, -253.14529181586764, -253.61258813786273, -253.43232304326068, -253.70409370489892, -253.37823469596853, -253.69446876841235, -253.6491039026988, -253.1996720543815, -253.14802983047497, -253.16328556759896, -253.1671975912532, -253.19536773097786, -253.51859861089727, -253.54959371863708, -253.18304252350097, -253.18715079266346, -253.16367676452384, -253.1478342560388, -253.11537308774953, -253.11419994839923, -253.14059821433398, -253.52899485931994, -253.57412053496117, -253.17521761772525, -253.22060880518697, -253.65892176185616, -253.62515151562062, -253.20808547270096, -253.32984911693669, -252.9280042485297, -253.3447350190509, -253.0141320982869, -253.0362105806157, -253.07861988853324, -253.10422870296347, -253.15194138265906, -253.13062488895068, -253.1267139954731, -252.73876821571076, -253.19986770892254, -253.23000211752742, -253.641446500132, -253.66068905722014, -253.68072012591517, -253.71922008072988, -253.71450517270347, -253.37176915618005, -253.35727187252573, -253.59727820396134, -253.46231675092977, -253.08350666673874, -253.0815519328102, -253.07490606330924, -253.11459099364106, -253.5291910231462, -253.1449006757587, -253.15174580217897, -253.1560486425514, -253.11713281716501, -253.5164410058027, -253.57529794149514, -253.24879083305385, -253.2846145462219, -253.3184900000773, -253.72609630239918, -253.73454474213423, -253.746530703276, -253.776598834395, -253.77620574096346, -253.7583212779996, -253.31907751562227, -253.26679930188735, -253.49545530853536, -253.50938000953164, -253.13981596433317, -253.13825147883512, -253.10305566691463, -253.05575227458252, -253.0045594406674, -252.94850556043608, -252.94557659811474, -252.94674817490358, -252.9817052080245, -253.41448701489537, -253.42271871601838, -253.0305440538942, -253.08546143086318, -253.09895012636795, -253.07060598079823, -253.06669694168272, -253.42193472144234, -253.43389116581756, -253.3527662979816, -253.32847813498535, -252.87764370854282, -252.43735675352937, -253.33631251744407, -252.90750625959004, -252.94167142053223, -253.30066999020565, -253.27834955921514]"
103002,30,1,91,"[-253.18949843490302, -253.29342520859777, -253.6889691325861, -253.39528179176222, -253.45486667068892, -253.84973539726823, -253.98077878550882, -253.69486160866714, -253.7076295792729, -253.82377888894482, -253.6443916002502, -253.5798114345016, -253.63202263933042, -253.73768849124147, -253.4976125564368, -253.17619570449617, -253.87707412618624, -253.89300804365158, -254.01424997693738, -254.06112446878373, -253.56921479209214, -253.2286322160732, -253.67129334657676, -253.70507588233883, -253.76775452672663, -253.76362739411155, -253.7846575181197, -253.6826841264643, -253.10501073303664, -252.86047105651647, -252.7955092864759, -252.35064934064755, -253.0657197007728, -252.8495442195401, -253.69545087133045, -253.36412848910172, -253.7038972703235, -253.75950039573686, -253.74083231825125, -253.74043933561467, -253.37647133421072, -253.7133264730774, -253.3633448569955, -253.723738698697, -253.40429612581514, -253.6877906702167, -253.41860279861004, -253.13473145716827, -253.09738614595562, -253.1648503625526, -253.07959722907694, -253.32064423706552, -253.5454736789977, -253.73533067210786, -253.84914541766926, -253.95026862136632, -254.2401155785016, -254.24958468248482, -253.94967817437094, -253.9266528829552, -253.8873030779196, -253.88395890685857, -253.83184056940382, -253.98274743494247, -253.73611660695022, -253.28481033205998, -253.1036421835799, -253.01178770699525, -253.01569504995143, -253.17404392357568, -252.99362014745543, -253.0356243764267, -253.47780647746532, -253.49525919691047, -253.47976733733688, -253.51447957849456, -253.80313545668605, -253.59511925943755, -253.29087984317252, -253.74849572297452, -253.76578920873897, -253.41703486524048, -253.47310053754833, -253.49016040116538, -252.96022208806633, -253.43565532689, -252.8909150827701, -252.84973933334774, -252.91238643178733, -253.073342380034, -253.54527748997373, -253.25642454516716, -253.8617322439341, -253.882385209784, -253.68346973519897, -253.39253842608488, -253.4125271648763, -253.1709141257116, -253.5837363416365, -253.63418221224555, -254.00637360882538, -254.05462403141044, -253.80097300571396, -253.81080262524972, -253.70487944624247, -253.52762172103527, -253.14998559145718, -253.42350271544515, -253.41429102852933, -253.46780656400165, -253.66520559059003, -253.37412022337938, -253.38489650633983, -253.4576113861386, -253.501731040752, -253.58766137027268, -253.90815695548878, -253.63025574338968, -253.97664472103415, -254.0120839270127, -253.75419445221019, -254.06270038248581, -253.81552111307946, -253.7386709288135, -253.74063582678082, -253.97743215151058, -253.4039041849113, -253.15780893759015, -252.98111925635115, -253.33846705757193, -253.54743558593626, -253.29714545009003, -253.74417271981045, -253.81552111307946, -253.80647749885165, -253.47408092728796, -253.83636319973104, -253.49682809840633, -253.86369904829195, -253.54684701066665, -253.92566898917173, -253.93393393393396, -253.68248772504091, -253.73277641749482, -253.73375881702938, -253.91425637846527, -253.53684164915398, -252.97467396708632, -252.95709757457013, -253.4680026331525, -253.3010616118287, -253.4301669064303, -253.81827364533297, -253.48623839016474, -254.02744398790603, -254.01031173182363, -253.53272202392878, -253.91386285846244, -253.96404649742448, -253.98274743494247, -254.03197359128043, -253.78839220363793, -253.83184056940382, -254.15610817787436, -254.0950109223555, -254.0305949992402, -253.7583212779996, -253.6355565050666, -253.54331561643284, -253.56587899536314, -253.2752171819335, -253.3796062165268, -253.40155256494924, -253.4264427564989, -253.80529794450783, -253.7624482380211, -253.7750264679755, -253.7600899587147, -253.8135550551632, -253.53468373352976, -253.62377733555323, -254.00637360882538, -254.0755054060928, -253.693486673098, -253.7154874307581, -253.75144330958727, -253.5095761430058, -253.22373983186935, -253.00143383178997, -253.01022480360376, -253.4989853696728, -253.67090057930824, -253.47780647746532, -253.51683329490646, -253.89753285395486, -253.51153749443918, -253.50526127667874, -253.5291910231462, -253.6139621966822, -253.95302407698182, -254.01996064927152, -253.7628412888336, -253.78446095876885, -253.80922983495856, -254.1492086292991, -254.12397918427808, -253.58805387981903, -253.22843651707538, -252.96217494819862, -252.97779891480573, -253.00573156390698, -253.17697817935408, -253.7211846774612, -253.4158589279458, -253.48623839016474, -253.50251552912758, -253.51683329490646, -253.85307866679682, -253.58471758740455, -253.63261161011465, -253.3459102963576, -254.09560204535833, -253.85563534409224, -253.77129217581754, -253.7628412888336, -253.68425534879938, -254.02133912589125, -253.74063582678082, -253.03523357514297, -253.08350666673874, -253.20632447841444, -253.67875615577626, -253.80333204496532, -253.8196499338475, -253.8635023664848, -253.8355766437494, -253.56332815120166, -253.9587319966921, -253.7139158215214, -254.09875474782442, -253.8861227721913, -253.97782586857983, -254.1024986836177, -254.10565155722787, -253.85170201573763, -253.901861084292, -253.67639943175, -253.3139858047688, -253.03914164230258, -253.44506460076238, -253.4509457517361, -253.27110605432878, -253.42193472144234, -253.80313545668605, -253.5129104585004, -253.7756161030995, -253.4478091039177, -253.81375165958423, -253.84619556080975, -253.56960724453637, -254.15886810219718, -254.1837101187101, -253.55273288633188, -253.5809888938848, -253.89891000214638, -253.80687068606937, -252.78556313390217, -253.47839473224136, -253.51487186152812, -253.32534451767526, -253.51997165144275, -253.60846605073715, -253.64223185347626, -253.27482564022097, -253.30536952960668, -253.3039988126013, -253.3369001156627, -253.39528179176222, -253.8125720376269, -253.8869096414575, -253.90146760270895, -253.6438025747551, -253.5623470709591, -253.51016454524918, -252.822426329889, -252.7336998063252, -252.72492803968694, -252.54494894687517, -253.0923033431016, -253.15448395640124, -253.54665081951737, -253.54056904448163, -253.6017924794805, -253.88297534390074, -253.96660541044122, -253.48506181053025, -253.5454736789977, -253.5976707432787, -253.64655138380465, -253.63594916289378]"
103003,30,1,100,"[-253.518402463462, -253.55744178362306, -253.66893676120964, -253.80392181163035, -253.86291232289176, -253.88277863222368, -253.59943718524516, -253.62318840579707, -253.61513997323522, -253.30027836979352, -254.03354914336265, -254.06723124328332, -254.0959961288882, -254.1409296654681, -254.19001997556387, -254.2006685694027, -253.89831979394927, -254.0170068211788, -253.3756876257522, -253.56587899536314, -253.55920766520003, -253.61258813786273, -253.76500309006732, -253.86192892299852, -253.5882501350479, -253.60905491212264, -253.58040016282638, -253.55881524494617, -253.90677970698474, -253.9467259805783, -253.76382392119203, -253.83931282807688, -254.1797666172534, -253.9307853201084, -253.96798330804015, -253.88356548076098, -253.61121409393223, -253.88317205588265, -253.8084434471225, -253.5154602883548, -253.62436626804444, -253.40292433795616, -253.8220093203113, -253.80215251985794, -253.781512605042, -253.78033328273267, -253.79252014183322, -253.79212699907674, -253.81827364533297, -253.86074885318345, -253.89930347580218, -253.65224553494016, -253.67188249976, -253.901861084292, -253.62750728752397, -253.00416873533436, -252.96100322850094, -253.69937935904264, -254.08791766084335, -253.96581804709766, -253.80667409230824, -253.81375165958423, -253.82436875063908, -253.82220593782995, -253.81178562908016, -253.8560286836317, -253.90127086237476, -253.96896752976483, -254.03000417866062, -254.1017104774401, -254.1356077592525, -254.2770096086243, -254.0946168418816, -253.28618084140143, -253.2675823368914, -253.31026506858635, -253.4511417948026, -254.08456820278997, -253.87176326479383, -253.86055217594756, -253.8465888710966, -254.17089418634595, -254.1898227877953, -253.72452456172954, -253.86428909554212, -254.24248278837283, -254.30503254967823, -254.32970574378263, -254.06959523480907, -253.91425637846527, -253.52409086231614, -253.27130181928362, -253.889467000258, -253.93905059793903, -253.77935052251425, -253.8041184011278, -253.57078460915804, -254.08121883304239, -254.05757873443395, -254.03433692673264, -254.05147242393653, -253.82476199329167, -253.8458022517417, -253.8782543477823, -253.9048122350396, -253.9465291700993, -254.05344216944442, -253.87550051446067, -253.44565270357757, -253.47192407987148, -253.12123894762377, -253.14822540521334, -253.6280962373378, -253.6361454922633, -253.7347412241712, -253.80824685092492, -253.90422199940176, -253.9799913342805, -254.0940257234627, -254.35418628317797, -254.44464720430815, -254.41698856688086, -254.47211423015332, -254.4410907568937, -253.7038972703235, -253.54822035721304, -253.99298490397845, -254.00499529462473, -253.4242867197228, -253.4668262227974, -253.88041811587524, -253.868812882252, -253.95381136099775, -253.98845669088703, -254.03256442102096, -254.2555032306674, -254.2815481165379, -254.0806277769593, -254.0674282408969, -253.90914071356787, -253.2376346969642, -253.46702229043154, -252.9451860749302, -253.01647653302487, -253.45271015025236, -253.6051292212054, -253.66932952239685, -253.39155866702444, -253.0754924495193, -253.19830248106055, -253.96660541044122, -254.0175975813016, -254.05974556033172, -253.80018666904198, -253.85209534308805, -253.84481898440382, -253.66343823229093, -253.77424029207236, -253.6889691325861, -253.69702225181564, -253.69132609017126, -253.5291910231462, -253.88218849902145, -253.97762900989264, -254.0248838487557, -254.0109024608057, -254.03079194004417, -254.01523455729705, -253.7822988260042, -254.11708137997354, -254.16320524724037, -254.40158136277634, -254.33523319561078, -253.89635245310973, -253.74967474940215, -253.69584371462682, -253.3739242994463, -254.04004850229023, -253.51408729667497, -253.59708193475836, -254.14999713017676, -254.18351294073113, -253.89969695067757, -253.91071474235042, -254.11846091087745, -254.18489319300815, -253.66068905722014, -253.75006776064617, -253.85917544382937, -254.27286589506113, -254.0950109223555, -253.61690665857577, -253.50800708371017, -253.40821560153805, -253.20162861339907, -253.3096775939175, -253.35119917918138, -253.065915148351, -253.5442965494081, -253.3073277224914, -253.7630378146965, -253.82692484966134, -254.1876537425325, -254.21210694178188, -254.0067674156302, -254.0091302821023, -253.99121297527913, -253.86074885318345, -253.64655138380465, -253.7526223634067, -253.67738139477268, -253.6273109715272, -253.7182377937733, -253.78780250914326, -253.84835878246994, -253.61376590165355, -253.641446500132, -253.65244188953923, -254.0349277674666, -254.0946168418816, -253.88749979660795, -253.94042819655564, -254.23340872324658, -254.26477617684856, -254.28174544664407, -254.0887057814544, -254.03610945717972, -254.19317502146913, -254.0061767058809, -253.6434098926116, -253.6469440756753, -253.35648828283263, -253.82476199329167, -253.86074885318345, -254.12457044207144, -254.17069702824986, -253.94397066163228, -254.00952409745494, -253.7628412888336, -253.48878768350994, -254.13383384004467, -253.88927027852117, -253.9315724662446, -254.22394082409616, -254.230252678507, -254.4448447876352, -254.4351635654623, -254.26674923138765, -254.074914376591, -253.66029632278884, -253.6473367687619, -253.6434098926116, -253.6699186664582, -253.76362739411155, -253.8479654666985, -253.85622535385855, -253.5519480871209, -253.60984006489042, -253.94515150528784, -253.98471611489504, -254.01779450195318, -254.0662462597978, -253.84206587638144, -253.90815695548878, -253.6500856544144, -254.48555349656488, -254.50887794572256, -254.26083015963175, -254.17385159449162, -253.93275319459914, -253.3116358534106, -253.17247901497075, -253.5472393938761, -253.59884836852208, -253.68759426088624, -253.82712147479543, -253.9512527057934, -254.074914376591, -253.8922211365836, -254.00066354737385, -254.34826313987796, -254.41106249830156, -254.4616404920715, -254.37847405521222, -254.3820287523814, -254.14763164222168, -254.05797270002984, -254.05994254633703, -254.10584861442635, -254.1356077592525, -253.4958475326956, -253.8084434471225, -253.7455482048395, -253.47623781141095, -253.61631776072747, -253.69623655913978, -253.38489650633983, -253.41213519851016, -253.83734640156297, -253.88769651560114]"
103004,30,0,101,"[-205.77129224522244, -185.25941802749915, -153.38618003016512, -115.6854043340278, -103.38406357708166, -105.12985704623827, -107.67206598795619, -107.84276618818096, -115.5332185769884, -152.58953289916388, -224.51239282097524, -243.6436424527502, -246.2950880790381, -231.13570890458308, -239.9806064441095, -242.85811696204632, -237.2771385681979, -216.21261379915128, -214.78008425498834, -226.15305828063768, -236.68532199952037, -239.01171242733983, -227.14889215782782, -204.44070645504047, -206.49357933337495, -213.02614538854013, -228.65999395673836, -248.27622785615782, -252.9094583058686, -253.35511701253282, -253.35903496705723, -251.2459936511831, -245.99997597583172, -233.7276228287983, -209.11377928786314, -184.16041689147872, -147.4825745784637, -124.50962957558734, -122.00398252692376, -117.88823661259573, -143.13377659214322, -211.2131785369199, -247.32947271805025, -252.74130249663702, -253.09679965828417, -253.87569721485954, -251.1828214161968, -242.8401184593174, -221.65999776763817, -210.06533969976562, -207.76992430953135, -219.0601812141872, -224.15331109609173, -208.30883133577157, -182.90821096935716, -167.89366136995736, -191.3212652298839, -216.5330915588638, -230.47889416273006, -243.74876329136336, -244.85766765356004, -239.50664569360225, -221.59239226729318, -192.61641956955077, -164.13216127799382, -142.59156591797426, -139.0870351968684, -143.54303837948422, -147.33681302474156, -153.8803999847843, -186.81417044234598, -224.5622451427201, -244.44502467427347, -252.11435359870987, -252.63704906480265, -250.64502829098288, -245.63852372499161, -238.6119190174435, -225.8081633300002, -196.21968556464586, -175.48115801390912, -161.0703878627242, -166.4175507614922, -180.75592351178523, -191.49423594577127, -214.77670550742613, -235.64870816438957, -246.9025101667291, -249.65865938473357, -249.6892885908904, -246.30156776995116, -230.02779961810626, -198.46915814600598, -173.74792737445867, -167.45761048768, -165.89256548976962, -158.63763449970347, -154.87940799169616, -153.14945614579557, -181.53744213206633, -207.96601154866036, -224.78176610814796, -234.52491294872118, -249.73134464861403, -250.27554216692624, -245.31173613809386, -213.32335085691966, -200.99334275109447, -200.81313169693743, -211.22257303864754, -227.3638779602684, -233.36806517526287, -236.39998470510062, -229.18185010120735, -232.6418521037662, -246.21846845154457, -252.52062080908016, -239.16243878975794, -220.39851592368683, -203.11424905314183, -184.9240116777479, -172.25336652900558, -154.04056193049252, -143.77166425343339, -149.0611065468246, -155.17830089539967, -162.4891833389948, -164.65349251127356, -164.23038465104742, -166.43276582538553, -178.3461331214247, -214.04812048935736, -245.0856831276305, -254.67860301787186, -255.00007782222292, -255.00007782222292, -255.00007782222292, -254.99571206893063, -254.15255979181936, -242.05260490768362, -218.6894119138911, -198.98548797202653, -178.89666829728503, -170.9790162353621, -179.34856083822615, -203.12872919785633, -226.96810864989058, -244.06285286958385, -249.2518716520591, -248.868520528406, -244.2345820724199, -231.5978747871642, -200.55416039558753, -178.44675569671404, -178.18184586538942, -177.77804302546576, -175.903756750663, -174.20748804573086, -171.62739878713217, -177.3342122382092, -202.97547036454066, -224.01539058953506, -249.60179650525492, -251.75019668584352, -250.75128964693405, -234.9576076730685, -211.06583512297306, -204.98400077571998, -203.66531685380687, -204.4511665141098, -216.21860600465732, -223.59837318484549, -235.0010829542993, -243.1765911639481, -251.57623834136422, -239.39658063333025, -241.85179335093937, -243.13490956363788, -241.88696488589966, -235.7826657609634, -220.04699511312606, -209.7936573385203, -199.48398502850378, -194.88471486951283, -195.27588148880952, -187.9138052158454, -205.50363662476565, -233.37587710926437, -247.59822093798218, -254.5794703298804, -254.67048746233417, -249.0652546862684, -237.50174862809703, -215.06371443854832, -195.63918133298785, -185.84436194021808, -185.9900406468301, -192.58585313587508, -201.56790759876625, -220.76900946691902, -246.09937707198296, -255.00007782222292, -255.00007782222292, -254.99610894941634, -249.29928086892218, -237.94291606606663, -223.67591123683556, -191.97464320029997, -174.15193476756534, -162.89687688601344, -159.4512855324978, -163.87015014720657, -170.86863655515646, -182.91719629308952, -198.33677241359274, -218.69802359511868, -234.9480048384934, -247.17834830218112, -247.27609163863144, -241.57292602045706, -222.97741917264196, -215.624856050486, -213.29349580794667, -214.47838754039432, -219.28022389108463, -223.81188517815744, -235.70532482405005, -242.34154278529692, -250.50591231260984, -253.6253478282744, -254.7288914041923, -254.06585226854205, -249.6105429545411, -236.71028545091767, -207.88908859855204, -183.89293835851686, -179.87558518440443, -178.25173276873625, -177.26389203710926, -177.61422258069936, -186.4368301357751, -213.6805922826659, -238.61400414499622, -252.57570642111315, -254.99987937564836, -254.18903403978032, -244.17197480707378, -229.1619750717202, -211.70800099499596, -206.66718805976174, -205.753590499681, -210.7283882336296, -217.6347439817853, -228.08048212428707, -238.22419843704222, -242.82716118915422, -250.09502496599708, -253.70880822596632, -254.6275430116718, -252.28517225024794, -236.81720908819554, -185.9025638407117, -157.5464544955816, -142.14088896292287, -138.04699335864498, -138.6947699199924, -139.36258216531525, -149.35877420692893, -176.96433817811038, -206.35014597602415, -231.67221566649155, -244.57675837828597, -250.86109811733596, -252.98873683982964, -252.4186882424674, -246.47423818797392, -235.7409360570607, -212.51357111263016, -200.296101050902, -200.8975923189641, -215.8839799025699, -229.95709226776557, -243.98743390626362, -251.88372775925185, -254.51915787380534, -254.94273961326383, -253.6371271436699, -244.3491417914065, -210.25472218104863, -181.50184509612114, -165.04353125763402, -154.42787176364575, -151.77664880568588, -157.62360539403977, -161.68738727847366, -163.28098760904254, -180.0892229513044, -213.97054550179936, -237.88539219472815, -251.3516084293727]"
104001,30,1,108,"[-251.96003949298878, -251.82081504576922, -251.63651666927774, -251.6042487155644, -251.60057803556978, -251.66550691778684, -251.9861975515804, -251.90677135426319, -251.7312428841193, -251.7805673995379, -251.8635922710691, -252.02399100414257, -252.01546226036342, -251.9869726880174, -251.97631498000618, -251.98677890346104, -251.9470593617628, -251.95093388777354, -251.88043616125825, -251.86591543233124, -251.87985529995436, -251.9555834762904, -252.0272863552072, -252.09961192955026, -252.03930542468706, -251.98852297519795, -251.87656380316932, -251.88392138534232, -251.91277499984625, -251.9602332364206, -251.99956932353032, -251.9292380768589, -251.9292380768589, -251.81404170489952, -251.73511077512626, -251.67207896944018, -251.68367754502606, -251.76915334199023, -251.5285384754148, -251.60540789991992, -251.7730223980944, -251.72466774218333, -251.56658103765167, -251.60888551707407, -251.59362335665992, -251.59690746267742, -251.57759042305295, -251.66570020852453, -251.65391001685012, -251.40155580942678, -251.27258171132524, -251.2026556169288, -251.4042562333171, -251.6166138993856, -251.8064946971321, -251.81539634392357, -251.75483886829795, -251.7198332981236, -251.5107763467651, -251.57198903638417, -251.67169236866485, -251.71403221036218, -251.71712609056038, -251.7590943526118, -251.72254056391935, -251.5561519823856, -251.4521019314548, -251.3874759675506, -250.8718537659106, -250.93102632298397, -251.0240681879643, -251.44592726968568, -251.7689598923065, -251.8194603484449, -251.84946063002715, -251.88353413345902, -251.82836291197728, -252.87627761674122, -252.8456420066223, -252.88603573914773, -251.45075119827982, -251.2883830792356, -251.15702238621782, -251.28510702259322, -252.58174199461493, -252.72960623945258, -252.88427922153593, -251.53066237610386, -251.48394484498974, -251.31844970563057, -252.50583159239653, -252.57375952344978, -252.62789446172303, -252.5124476067689, -252.4937679880715, -252.53035150171823, -252.48948763135164, -252.43696779805046, -252.19371666901412, -252.1764427013748, -252.15820085543092, -252.30440383488525, -252.36347672721533, -252.38738579137657, -252.28575498246462, -252.0935993752861, -252.1073704878882, -251.99995693228675, -252.07032767527107, -252.13646933533602, -252.20924585071262, -252.37261217630268, -252.39419001160795, -252.43716227564008, -252.43366172487222, -252.38874660607348, -252.28633771737339, -252.34151548149507, -252.3160607677671, -252.36542038439768, -252.32966188425965, -252.40099459872502, -252.3104264490505, -252.2760431302955, -252.3341311425922, -252.3626992727253, -252.3877745940783, -252.4599182223099, -252.52665375017534, -252.44708103006604, -252.44999845912048, -252.45738958119207, -252.4023555601773, -252.34248713721001, -252.22613600674921, -252.20963410475855, -252.07071550172975, -252.19468718684433, -252.38971862555556, -252.36328236314375, -252.45563901316785, -252.32169533812817, -252.05830564694605, -252.19041696426373, -252.2762373600112, -252.33160502060346, -252.39943923217945, -252.4274387632157, -252.539888308113, -252.4787873744425, -252.1968223523644, -252.0625713967022, -252.0782783562099, -252.11512952379192, -252.21448738119355, -252.361727461349, -252.51614494227894, -252.5229561069217, -252.4323004257922, -252.41188270130866, -252.3347141010032, -252.32538708964495, -252.3761110340897, -252.36619785565364, -252.31353500756936, -252.36561475176254, -252.45330496023325, -252.2601173113092, -252.14015566867118, -252.06024460620924, -252.05500948465914, -252.07284856858442, -252.24264006829725, -252.30110123305454, -252.32907894919225, -252.26633202582175, -252.29702166780754, -252.37047403319085, -252.42160501530694, -252.37047403319085, -252.3265529283572, -252.30110123305454, -252.2787623735315, -252.26341884026732, -252.2016751357334, -251.99317395119485, -251.88430863841643, -251.97379601711148, -252.0784722815229, -252.1725612365206, -252.30168403885972, -252.46925518218052, -252.47450752561576, -252.38252585867593, -252.35317584396262, -252.2313782392992, -252.2758489008789, -252.31217500379236, -252.35103803017245, -252.37727734157772, -252.45252695217908, -252.38719139047492, -252.23914491029947, -252.2750719862033, -252.2606999277869, -252.32402695809665, -252.35589675026415, -252.4678934991848, -252.51419896272435, -252.55682278013677, -252.4951299501899, -252.40002249238765, -252.4062441023429, -252.29235946906726, -252.35278714785207, -252.31431215916737, -252.385053000322, -252.40002249238765, -252.29585610196855, -252.13782744560302, -252.0429889174005, -252.15509612321256, -252.2024515984034, -252.247882986913, -252.38932981686426, -252.47042235072482, -252.38932981686426, -252.36308799937154, -252.31897516929325, -252.33315955122632, -252.40118902089105, -252.42413293962758, -252.3685302981641, -252.42277174331716, -252.42802215283731, -252.29022268556233, -252.06741901487004, -252.00577120672364, -252.09709050090902, -252.22516524685614, -252.2711874846021, -252.37960998889335, -252.3104264490505, -252.32577570135197, -252.206528105861, -252.16479866525887, -252.15703657188942, -252.10581873801678, -252.11881523315625, -252.15043916823524, -252.16130566410607, -252.03096949661494, -251.85604229293762, -251.82313741795016, -251.86204352070348, -251.9292380768589, -251.90522207282322, -252.1983752227238, -252.05753007159336, -251.89825054216513, -251.795078288774, -251.84597635951246, -251.9019299130371, -252.0106166403763, -251.8666898289425, -251.7902411398528, -251.75155063804152, -251.57392052085254, -251.45538234386774, -251.60135080140486, -251.74187987040673, -251.81094544185837, -251.868238636451, -251.83591123066574, -251.865141040482, -251.83300797761962, -251.7076513226424, -251.93214354911626, -251.80726872839136, -251.87695103362026, -251.86107556139723, -251.8846958926813, -251.76025496421096, -251.60019165443234, -251.49784246212604, -251.59033933637647, -251.8455892242953, -251.91742318006249, -251.8426857481035, -252.02825559250905, -251.94299123770156, -251.66028818009985, -251.6253088970016, -251.8117195004803, -251.90425378160046, -251.9767025172293, -251.9104509740609, -251.7030108802193, -251.63786939897048, -251.5399307261472]"
104002,30,1,122,"[-252.1531557044005, -251.11968094074658, -250.8109812758622, -250.69105103257903, -250.76261159843085, -250.8664758263389, -251.10197650751616, -251.06407432238294, -250.74975454578154, -249.47523177739015, -249.24523580058252, -249.48301959195857, -250.84400621617274, -251.76431718907872, -252.00499595463032, -252.2344848503043, -251.90580305112994, -250.01564171469818, -249.7576130834055, -249.84083292985594, -251.31401635339657, -251.6312991338391, -252.1566484797648, -251.90832065476022, -250.83306094109668, -249.6377369185316, -249.78598158412507, -250.79504793249268, -252.09883609998093, -252.73935304525966, -252.8813517464071, -252.38816339797793, -251.3838116098246, -251.0725387926113, -251.0159915733027, -250.9804221943074, -251.07619408120073, -251.16395294824645, -251.0386843357285, -249.84750053374813, -249.3926348989856, -249.30516086866874, -250.24209339764718, -251.76837954503893, -252.57375952344978, -252.6935495936251, -252.30420956179591, -251.55769697304697, -251.17377189923, -250.8837628812699, -250.82845268997383, -250.80349427201773, -250.90278139366785, -250.93544617297982, -250.21132842537224, -249.61073310155066, -249.57137884626076, -250.23062730627305, -251.34216115752244, -252.1391855705008, -252.39166268698105, -252.6615944660734, -252.15160339085307, -250.29943962013942, -249.98397880930509, -249.9963759795346, -251.29455000582854, -251.54051002070392, -252.03659134105433, -252.0666433834333, -250.93352447993726, -250.6252820461829, -250.59020658568838, -250.94620819796927, -251.86610903103764, -252.08273871389878, -252.55565481260072, -252.57979500390428, -251.87830634957484, -251.77321585402115, -251.7312428841193, -251.74246009551263, -251.81752509183687, -251.9939491305528, -251.93814840415595, -251.67671827139029, -251.00618495418354, -250.9798454766258, -251.3957693821481, -252.05869343641223, -252.4019667125505, -252.53424398875705, -252.68107833830592, -251.44496250617738, -251.35700718929982, -251.06695987311414, -251.08061904663387, -251.17069136137474, -251.16068013518083, -251.36857674155993, -251.1510547087278, -251.0706149992606, -250.90335775723776, -250.824804611251, -251.20901092633085, -251.47622461024142, -251.58493054867736, -251.77843927642223, -251.79740018627186, -251.84810562448214, -252.09573282945476, -252.18459416651402, -251.8678514327881, -251.73743156678452, -251.6954705261969, -251.33869090948141, -250.40559945038692, -250.22011764553156, -250.61895623748032, -251.15220972094795, -251.47004876371625, -251.59304381743897, -251.64386023386513, -251.7142255756464, -251.77398968070108, -251.82874999423595, -251.75522572456362, -251.7855976517326, -251.6906372035432, -251.44592726968568, -250.51376461018108, -249.94221893037516, -249.8461669844993, -250.73862562451262, -252.24730042963722, -252.88369372108784, -252.94303821896975, -251.68097111510178, -251.8150093027152, -251.69972400369022, -251.58551005052135, -251.62801412993397, -251.59613472413645, -251.5069153463967, -251.44515545828676, -250.7998469192499, -249.94031241966968, -250.0660137033764, -250.4220575007012, -250.53713289547125, -250.8847233430675, -250.97926876159457, -250.89893903753799, -250.7771973139816, -250.57430127952188, -250.4919326109658, -250.48676243164877, -250.4488543036892, -250.5354088566297, -250.59442278851395, -249.95632801361498, -249.5187357981371, -249.79797825788646, -250.75435990562752, -252.24963067488534, -252.44669204462022, -252.5083612040134, -251.25061725744465, -251.0971659515707, -251.00003217261678, -250.90931366918596, -250.90950580008564, -250.9194970123526, -251.4576979806336, -251.42798388012608, -250.79543184467477, -250.69047564399764, -251.14778223179454, -252.64795754323822, -253.02859013800858, -253.18734642785392, -252.1587830012336, -251.58493054867736, -251.48992835296238, -251.23732484808983, -251.0427233082753, -250.6289243233279, -250.42052642801298, -250.18305425353947, -249.3696693970211, -248.73042501347382, -249.01755593908427, -249.8179752751337, -251.43010608298644, -251.70571778417235, -252.09476307308339, -250.83766936154933, -251.04214630424008, -250.72059119467016, -250.60247229698155, -250.61301410200127, -250.68376297237023, -250.6444531136456, -250.12213367530765, -249.1910246514086, -249.21661089139033, -250.1799979690579, -252.41829934451513, -253.05712030619858, -253.34316799960413, -252.3924403199369, -252.50641534442502, -251.86281789350537, -251.89031121333537, -251.84229862300285, -251.67246557140334, -251.49784246212604, -250.799079069027, -249.51626573135823, -249.44769340627383, -249.96891313452485, -251.89689501156974, -252.34890025260302, -252.82788845851144, -252.6415292187365, -251.7877258958608, -252.09903005692559, -251.99511190853207, -251.93059395557248, -251.8724979553183, -251.51560276393135, -250.496337006138, -249.70070512424834, -249.40155652389018, -250.02193710346302, -251.80068961436464, -252.1867291611349, -252.2005104506929, -250.7424630719797, -250.614547529343, -250.28318885545872, -250.30919109193536, -250.28624766170603, -250.7012166663861, -251.0477241210227, -250.80042281000263, -249.2205914454064, -248.2431232556237, -248.1863393367054, -250.7194401489304, -251.90386646719566, -252.46906065513897, -252.2886686839289, -251.71944655062086, -250.46455223737985, -250.44502583786763, -250.04845752449967, -250.04101597524541, -250.12843442821298, -251.12295268539162, -249.91114643220513, -249.59875440570332, -249.5274764271278, -250.58311601905737, -251.67613834929273, -251.95519600402608, -252.16149971718696, -252.2515725788137, -251.82062151668765, -251.65062442255984, -251.43589409106082, -251.42103873941892, -251.42258207086206, -250.8645551895131, -249.38162611402433, -249.11751714217726, -249.17757029245496, -250.6319915861937, -251.48317280018424, -252.25836947802296, -252.3199466514301, -252.58622018716372, -252.21390497815923, -251.45055823758227, -251.2772062962321, -251.21632955976, -251.38265446642077, -251.01772223269185, -249.4896681110525, -249.1105096703564, -249.03591400824166, -250.17197557755927, -251.19476007439172, -252.00460833037238, -252.17197902709808, -252.29138819935076, -251.5426341235735, -251.33252181623357, -250.97234838794668, -250.78141981147957]"
104003,30,1,115,"[-250.7035184337897, -250.7581978347263, -250.7040938822447, -250.49308156868742, -250.32888755788954, -250.31951700793044, -250.31416272292182, -250.35891629055908, -250.38359497261345, -250.38493426507165, -250.23100949239006, -249.7322963070228, -249.31331745657351, -249.28543551345555, -249.57556083475703, -249.95098925425094, -250.47699711967124, -250.54709447339002, -250.4366036250521, -250.1731216019875, -250.0539912713475, -249.98645814498713, -250.01831244697019, -250.039680359443, -250.2023487729265, -250.23177386812642, -250.24687124585776, -250.13225322083346, -249.86007469799773, -249.940693719484, -250.05666282300672, -250.30345484003786, -250.73152665634166, -250.84227795134115, -250.21190161656116, -250.0413975823812, -248.2154801557151, -248.1425469768442, -248.31366926319794, -250.17484065831704, -250.43047873515295, -250.59154808937996, -248.81617354485783, -248.38594993772725, -248.10853868333695, -249.92086767167902, -250.3828296690701, -251.02868362969994, -250.98080667423432, -251.0242604946481, -248.9997682273955, -248.8018150451939, -248.73118024907276, -250.40024148221173, -250.52774674884301, -250.77412649601956, -249.18875057321702, -249.07661422428373, -248.75402829390129, -249.91858025317535, -249.84807205921265, -250.07231162916, -250.42186611559134, -250.83766936154933, -251.21979642969956, -249.82845118101835, -248.95114883581698, -248.8163624835316, -248.8993342833443, -248.96836209103944, -249.260403980316, -249.56548628216203, -249.79931129277068, -249.7178318819108, -249.26723026352323, -248.76743695214148, -248.67039845547657, -250.51625446585916, -251.09023907481213, -251.36317748463452, -249.83759450779698, -249.58696697030658, -248.82108604363313, -248.88969234964415, -248.80049263515005, -249.09668527397446, -249.20334329629546, -249.40725151184162, -249.5348874400951, -249.43307205294522, -248.9655245774341, -248.71777549894227, -248.7927473728968, -250.8584093492932, -251.42103873941892, -251.51154856106407, -249.7591360606855, -248.81145017126812, -248.65737765005233, -248.57909286496752, -248.79501422900654, -248.96874043107374, -250.89759424069538, -251.02964520142436, -251.15509729797677, -249.29074587894635, -248.9556883643398, -248.72759292082424, -249.03099302314976, -251.05195573358014, -251.6237630757275, -251.85526796179937, -249.92677702995428, -249.00866176557759, -248.88061827089228, -248.95947143124152, -249.24807969366378, -249.57099867243798, -249.8055957917207, -250.06410530364545, -250.07498357230136, -249.74162294327292, -249.40402432007014, -249.20523858053332, -249.27500509702608, -250.11984257113457, -252.1296790034541, -252.26089413387754, -252.28089896291274, -249.44541464105347, -249.8366420466979, -249.99732965894404, -250.54690289711343, -250.84323809552973, -251.13084371440965, -250.8539922126322, -250.7297999410804, -249.1398679293342, -248.7130558604347, -248.59983824736622, -248.84508449888096, -249.81949898866065, -250.05857110914224, -250.40005013044615, -250.37115936968235, -250.1311075708038, -249.47789097647902, -249.39965825236808, -249.42946445019254, -249.49574706718576, -249.6656977297923, -249.70432057745887, -249.4799803869616, -249.0203946388456, -248.6009699132662, -248.64850918649515, -249.33608285077273, -249.7383870925946, -250.17044756132103, -250.30479327529784, -250.170065560178, -249.9492732728884, -249.6873859368249, -249.55142128624047, -249.52595627374976, -249.6249949529539, -249.73153497971555, -249.70089540864927, -249.3804873296721, -248.87456925263197, -248.73495649586366, -248.7570498371961, -249.15521274039557, -249.566626756723, -249.77569963799408, -249.83226081917715, -249.58962855195054, -249.31047207459457, -249.14176224818374, -249.16468578954493, -249.13494283513694, -249.28600447036519, -249.36018075511987, -249.31369684574463, -248.88742376792484, -248.48540460115467, -248.58795637743006, -248.71418855734083, -248.96155216704517, -249.3524006075715, -249.63108050558543, -249.4387684802939, -248.8443285714177, -248.54571892571693, -248.4401880645291, -248.5263020572611, -248.63341538405504, -248.84678535246525, -248.852077045642, -248.4708958358926, -247.89380670229443, -247.59541456949438, -247.81506478419888, -248.31611557721922, -249.35296987019828, -249.5917198344942, -249.71916406153548, -249.58487576740856, -248.53761248551265, -248.4038383688297, -248.36091046212852, -248.42643796503665, -248.43284193160002, -248.45393968620814, -248.10252713704205, -247.17461917140264, -246.71976483804758, -246.93842177055305, -247.86605384110305, -248.86984366170657, -249.0696090533728, -249.0999045168981, -248.8543449830411, -248.5619333926538, -248.57569849566454, -248.78745820261372, -248.94093550190846, -249.27841859177133, -249.71098089692327, -249.58221428712886, -247.972973995644, -247.6101954916763, -247.66690324536086, -248.16641471594198, -249.14782426208765, -249.51056576389436, -249.46972361675142, -249.1912141597981, -247.90918596328765, -247.85967906154167, -247.74386518838426, -247.84993003290342, -247.97860392745676, -248.33926385715205, -248.072285964122, -247.16082236584057, -246.60260081566176, -246.67147457854236, -247.25463371346774, -248.33700529839172, -248.6445468859674, -248.98728050145476, -248.77140317032263, -248.35978098073574, -248.19066302590068, -248.30877677975337, -248.3300416674877, -248.47221474454005, -248.65473591390312, -248.61681431775486, -248.0187715248079, -247.51686207206518, -247.31640528884404, -247.51648813179324, -248.49689976096002, -248.80918301564293, -249.2505444534965, -249.122062740107, -248.84395060940835, -248.34585155486164, -247.96246547353283, -247.93282122989572, -248.0197101756431, -248.15043973678647, -248.2694557423156, -247.8396193948287, -247.33432668632236, -246.86326124396726, -246.6985890891569, -247.25332769913373, -248.38915083612545, -248.56099063316412, -248.44847653095653, -248.03867244391557, -247.96246547353283, -248.13634587481937, -248.4872889806993, -248.66549190492017, -248.9099223652026, -248.86568529013695, -248.35940448922113, -247.52733285842817, -247.2027768913272, -247.38586517481673, -248.48540460115467, -249.13380630259036, -249.25585333255233, -249.24504621001788, -248.98217224730593, -248.7755583916862]"
